ECG,foot GSR,HR,marker,RESP
-0.603,1.802,74.99250074992501,0.0,11.574
-0.409,1.802,74.99250074992501,0.0,11.472
-0.405,1.802,77.99220077992202,0.0,11.388
-0.403,1.803,77.99220077992202,0.0,11.292
-0.386,1.798,77.99220077992202,0.0,11.234
-0.257,1.734,77.99220077992202,0.0,11.622
-0.117,1.735,77.99220077992202,0.0,11.628
-0.371,1.735,77.99220077992202,0.0,11.636
-0.292,1.734,77.99220077992202,0.0,11.65
-0.066,1.734,77.99220077992202,0.0,11.66
0.054,1.733,77.99220077992202,0.0,11.69
-0.392,1.733,77.99220077992202,0.0,11.744
-0.459,1.733,77.99220077992202,0.0,11.834
-0.482,1.73,77.99220077992202,0.0,11.902
-0.507,1.73,77.99220077992202,0.0,11.98
-0.517,1.73,77.99220077992202,0.0,12.074
-0.523,1.73,77.99220077992202,0.0,12.172
-0.524,1.73,77.99220077992202,0.0,12.27
-0.512,1.73,77.99220077992202,0.0,12.358
-0.518,1.73,77.99220077992202,0.0,12.448
-0.045,1.73,77.99220077992202,0.0,12.536
-0.504,1.729,77.99220077992202,0.0,12.618
-0.37,1.728,77.99220077992202,0.0,12.684
0.018,1.728,64.993500649935,0.0,12.738
0.044,1.728,64.993500649935,0.0,12.778
-0.317,1.726,64.993500649935,0.0,12.808
-0.42,1.725,64.993500649935,0.0,12.82
-0.425,1.725,64.993500649935,0.0,12.78
-0.43,1.725,64.993500649935,0.0,12.632
-0.42,1.725,64.993500649935,0.0,12.626
-0.406,1.725,64.993500649935,0.0,12.522
-0.396,1.725,64.993500649935,0.0,12.426
-0.366,1.725,64.993500649935,0.0,12.338
-0.174,1.725,64.993500649935,0.0,12.258
-0.118,1.725,64.993500649935,0.0,12.202
-0.308,1.724,64.993500649935,0.0,12.15
-0.197,1.723,64.993500649935,0.0,12.116
0.08,1.723,66.993300669933,0.0,12.1
0.179,1.723,66.993300669933,0.0,12.09
-0.262,1.72,66.993300669933,0.0,12.076
-0.295,1.72,66.993300669933,0.0,12.086
-0.296,1.72,66.993300669933,0.0,12.086
-0.299,1.72,66.993300669933,0.0,12.084
-0.296,1.72,66.993300669933,0.0,12.092
-0.288,1.72,66.993300669933,0.0,12.08
-0.281,1.72,66.993300669933,0.0,12.074
-0.278,1.72,66.993300669933,0.0,12.07
-0.257,1.72,66.993300669933,0.0,12.044
0.079,1.718,66.993300669933,0.0,12.022
-0.144,1.718,66.993300669933,0.0,12.018
-0.205,1.718,66.993300669933,0.0,12.006
-0.104,1.715,61.99380061993801,0.0,12.0
0.166,1.715,61.99380061993801,0.0,11.996
0.237,1.715,61.99380061993801,0.0,11.964
-0.199,1.715,61.99380061993801,0.0,11.92
-0.234,1.715,61.99380061993801,0.0,11.888
-0.239,1.715,61.99380061993801,0.0,11.854
-0.253,1.715,61.99380061993801,0.0,11.774
-0.252,1.715,61.99380061993801,0.0,11.662
-0.251,1.713,61.99380061993801,0.0,11.594
-0.258,1.713,61.99380061993801,0.0,11.554
-0.273,1.713,61.99380061993801,0.0,11.524
-0.271,1.711,61.99380061993801,0.0,11.506
0.007,1.71,61.99380061993801,0.0,11.51
-0.193,1.71,61.99380061993801,0.0,11.53
-0.282,1.71,61.99380061993801,0.0,11.588
-0.197,1.71,61.99380061993801,0.0,11.674
0.067,1.71,61.99380061993801,0.0,11.772
0.16,1.71,61.99380061993801,0.0,11.888
-0.303,1.71,61.99380061993801,0.0,12.038
-0.356,1.708,61.99380061993801,0.0,12.2
-0.377,1.709,61.99380061993801,0.0,12.338
-0.391,1.708,61.99380061993801,0.0,12.444
-0.4,1.708,61.99380061993801,0.0,12.546
-0.4,1.706,61.99380061993801,0.0,12.64
-0.369,1.705,61.99380061993801,0.0,12.714
0.18,1.705,61.99380061993801,0.0,12.778
-0.498,1.705,61.99380061993801,0.0,12.864
-0.282,1.705,61.99380061993801,0.0,12.902
-0.143,1.705,71.99280071992801,0.0,12.9
0.186,1.705,71.99280071992801,0.0,12.892
0.124,1.705,71.99280071992801,0.0,12.914
-0.247,1.705,71.99280071992801,0.0,12.97
-0.255,1.705,71.99280071992801,0.0,12.956
-0.265,1.705,71.99280071992801,0.0,12.862
-0.267,1.704,71.99280071992801,0.0,12.73
-0.248,1.703,71.99280071992801,0.0,12.628
-0.215,1.703,71.99280071992801,0.0,12.516
-0.228,1.7,71.99280071992801,0.0,12.414
0.314,1.7,71.99280071992801,0.0,12.348
-0.222,1.7,71.99280071992801,0.0,12.25
-0.07,1.7,71.99280071992801,0.0,12.16
0.141,1.7,73.992600739926,0.0,12.08
0.418,1.7,73.992600739926,0.0,12.012
-0.015,1.699,73.992600739926,0.0,11.936
-0.139,1.698,73.992600739926,0.0,11.872
-0.143,1.698,73.992600739926,0.0,11.774
-0.17,1.698,73.992600739926,0.0,11.65
-0.193,1.696,73.992600739926,0.0,11.56
-0.222,1.695,73.992600739926,0.0,11.49
-0.229,1.695,73.992600739926,0.0,11.438
-0.267,1.695,73.992600739926,0.0,11.434
0.183,1.695,73.992600739926,0.0,11.52
-0.294,1.695,73.992600739926,0.0,11.656
-0.196,1.695,73.992600739926,0.0,11.81
0.025,1.695,71.99280071992801,0.0,11.966
0.263,1.693,71.99280071992801,0.0,12.124
-0.227,1.693,71.99280071992801,0.0,12.292
-0.327,1.693,71.99280071992801,0.0,12.466
-0.339,1.693,71.99280071992801,0.0,12.606
-0.366,1.693,71.99280071992801,0.0,12.732
-0.372,1.69,71.99280071992801,0.0,12.836
-0.342,1.69,71.99280071992801,0.0,12.896
0.228,1.69,71.99280071992801,0.0,12.952
-0.488,1.69,71.99280071992801,0.0,13.002
-0.253,1.69,71.99280071992801,0.0,13.04
-0.11,1.69,71.99280071992801,0.0,13.072
0.22,1.69,71.99280071992801,0.0,13.09
0.099,1.69,71.99280071992801,0.0,13.042
-0.222,1.689,71.99280071992801,0.0,12.968
-0.226,1.688,79.99200079992,0.0,12.86
-0.238,1.688,79.99200079992,0.0,12.748
-0.232,1.688,79.99200079992,0.0,12.642
-0.214,1.686,79.99200079992,0.0,12.544
-0.188,1.685,79.99200079992,0.0,12.454
0.471,1.685,79.99200079992,0.0,12.376
-0.372,1.685,79.99200079992,0.0,12.298
-0.089,1.685,79.99200079992,0.0,12.232
0.064,1.685,79.99200079992,0.0,12.186
0.394,1.685,79.99200079992,0.0,12.134
0.169,1.685,79.99200079992,0.0,12.068
-0.123,1.685,79.99200079992,0.0,12.026
-0.117,1.683,79.99200079992,0.0,11.962
-0.13,1.683,79.99200079992,0.0,11.866
-0.135,1.683,79.99200079992,0.0,11.79
-0.131,1.683,79.99200079992,0.0,11.73
-0.121,1.682,79.99200079992,0.0,11.69
-0.102,1.681,79.99200079992,0.0,11.66
0.527,1.681,79.99200079992,0.0,11.644
-0.319,1.681,77.99220077992202,0.0,11.636
-0.05,1.681,77.99220077992202,0.0,11.628
0.083,1.681,77.99220077992202,0.0,11.62
0.406,1.681,77.99220077992202,0.0,11.622
0.212,1.681,77.99220077992202,0.0,11.62
-0.119,1.681,77.99220077992202,0.0,11.618
-0.137,1.681,77.99220077992202,0.0,11.612
-0.166,1.678,77.99220077992202,0.0,11.574
-0.195,1.678,77.99220077992202,0.0,11.548
-0.212,1.678,77.99220077992202,0.0,11.56
-0.226,1.678,77.99220077992202,0.0,11.618
-0.237,1.677,77.99220077992202,0.0,11.69
-0.239,1.676,77.99220077992202,0.0,11.78
-0.25,1.676,77.99220077992202,0.0,11.882
0.185,1.676,77.99220077992202,0.0,11.99
-0.255,1.676,77.99220077992202,0.0,12.11
-0.145,1.676,77.99220077992202,0.0,12.232
0.079,1.676,77.99220077992202,0.0,12.344
0.319,1.676,77.99220077992202,0.0,12.456
-0.134,1.676,77.99220077992202,0.0,12.558
-0.239,1.676,77.99220077992202,0.0,12.64
-0.257,1.676,77.99220077992202,0.0,12.68
-0.275,1.676,77.99220077992202,0.0,12.728
-0.272,1.676,77.99220077992202,0.0,12.774
-0.257,1.674,77.99220077992202,0.0,12.806
-0.216,1.673,77.99220077992202,0.0,12.822
0.042,1.673,77.99220077992202,0.0,12.816
-0.026,1.673,77.99220077992202,0.0,12.786
-0.121,1.673,77.99220077992202,0.0,12.716
0.002,1.672,77.99220077992202,0.0,12.626
0.293,1.671,77.99220077992202,0.0,12.524
0.34,1.671,77.99220077992202,0.0,12.416
-0.079,1.671,77.99220077992202,0.0,12.314
-0.095,1.671,77.99220077992202,0.0,12.224
-0.099,1.671,77.99220077992202,0.0,12.114
-0.108,1.671,77.99220077992202,0.0,12.006
-0.107,1.671,77.99220077992202,0.0,11.912
-0.103,1.671,77.99220077992202,0.0,11.832
-0.1,1.671,77.99220077992202,0.0,11.778
-0.074,1.671,77.99220077992202,0.0,11.736
0.087,1.671,77.99220077992202,0.0,11.708
0.193,1.671,71.99280071992801,0.0,11.684
-0.039,1.671,71.99280071992801,0.0,11.67
0.061,1.668,71.99280071992801,0.0,11.662
0.329,1.668,71.99280071992801,0.0,11.648
0.447,1.668,71.99280071992801,0.0,11.636
-0.028,1.667,71.99280071992801,0.0,11.622
-0.084,1.666,71.99280071992801,0.0,11.618
-0.102,1.666,71.99280071992801,0.0,11.588
-0.139,1.666,49.99500049995,0.0,11.546
-0.162,1.666,49.99500049995,0.0,11.524
-0.18,1.666,49.99500049995,0.0,11.522
-0.195,1.666,49.99500049995,0.0,11.552
-0.199,1.666,49.99500049995,0.0,11.624
-0.222,1.666,49.99500049995,0.0,11.726
0.212,1.666,49.99500049995,0.0,11.842
-0.236,1.663,49.99500049995,0.0,11.986
-0.007,1.658,73.992600739926,0.0,12.71
0.314,1.658,73.992600739926,0.0,12.73
0.114,1.658,73.992600739926,0.0,12.744
-0.194,1.658,73.992600739926,0.0,12.694
-0.201,1.657,73.992600739926,0.0,12.644
-0.215,1.656,73.992600739926,0.0,12.63
-0.228,1.656,73.992600739926,0.0,12.618
-0.222,1.656,73.992600739926,0.0,12.634
-0.204,1.656,73.992600739926,0.0,12.678
-0.201,1.656,73.992600739926,0.0,12.684
0.358,1.656,73.992600739926,0.0,12.696
-0.248,1.656,73.992600739926,0.0,12.706
-0.086,1.656,73.992600739926,0.0,12.708
0.1,1.656,71.99280071992801,0.0,12.686
0.417,1.656,71.99280071992801,0.0,12.658
-0.011,1.653,71.99280071992801,0.0,12.614
-0.186,1.653,71.99280071992801,0.0,12.632
-0.18,1.653,71.99280071992801,0.0,12.608
-0.192,1.652,71.99280071992801,0.0,12.562
-0.184,1.652,71.99280071992801,0.0,12.538
-0.159,1.651,71.99280071992801,0.0,12.542
-0.112,1.651,71.99280071992801,0.0,12.554
0.51,1.651,71.99280071992801,0.0,12.522
-0.273,1.651,71.99280071992801,0.0,12.41
-0.015,1.651,71.99280071992801,0.0,12.276
0.112,1.651,71.99280071992801,0.0,12.14
0.43,1.651,71.99280071992801,0.0,12.016
0.278,1.651,71.99280071992801,0.0,11.904
-0.087,1.651,71.99280071992801,0.0,11.816
-0.081,1.651,74.99250074992501,0.0,11.774
-0.074,1.651,74.99250074992501,0.0,11.746
-0.083,1.651,74.99250074992501,0.0,11.684
-0.092,1.648,74.99250074992501,0.0,11.626
-0.103,1.648,74.99250074992501,0.0,11.576
-0.098,1.646,74.99250074992501,0.0,11.554
0.442,1.646,74.99250074992501,0.0,11.574
-0.312,1.646,74.99250074992501,0.0,11.598
-0.111,1.646,74.99250074992501,0.0,11.652
-0.006,1.646,70.992900709929,0.0,11.746
0.295,1.646,70.992900709929,0.0,11.86
0.215,1.646,70.992900709929,0.0,11.978
-0.195,1.646,70.992900709929,0.0,12.086
-0.237,1.646,70.992900709929,0.0,12.186
-0.274,1.646,70.992900709929,0.0,12.284
-0.286,1.646,70.992900709929,0.0,12.426
-0.262,1.646,70.992900709929,0.0,12.606
-0.251,1.643,70.992900709929,0.0,12.818
0.332,1.643,70.992900709929,0.0,13.0
-0.368,1.643,70.992900709929,0.0,13.084
-0.106,1.642,70.992900709929,0.0,13.076
0.069,1.641,79.99200079992,0.0,12.978
0.369,1.641,79.99200079992,0.0,12.912
0.01,1.641,79.99200079992,0.0,12.874
-0.158,1.641,79.99200079992,0.0,12.856
-0.169,1.641,79.99200079992,0.0,12.828
-0.183,1.641,79.99200079992,0.0,12.796
-0.181,1.641,79.99200079992,0.0,12.764
-0.17,1.641,79.99200079992,0.0,12.742
-0.144,1.639,79.99200079992,0.0,12.732
0.483,1.638,79.99200079992,0.0,12.728
-0.303,1.638,79.99200079992,0.0,12.708
-0.088,1.638,79.99200079992,0.0,12.7
0.04,1.637,74.99250074992501,0.0,12.702
0.371,1.636,74.99250074992501,0.0,12.704
0.224,1.638,74.99250074992501,0.0,12.696
-0.14,1.636,74.99250074992501,0.0,12.696
-0.143,1.636,74.99250074992501,0.0,12.7
-0.162,1.636,74.99250074992501,0.0,12.664
-0.178,1.636,74.99250074992501,0.0,12.632
-0.179,1.636,74.99250074992501,0.0,12.62
-0.159,1.636,74.99250074992501,0.0,12.614
-0.173,1.636,74.99250074992501,0.0,12.616
0.384,1.634,74.99250074992501,0.0,12.614
-0.189,1.633,74.99250074992501,0.0,12.608
-0.053,1.633,74.99250074992501,0.0,12.59
0.145,1.633,72.99270072992701,0.0,12.564
0.426,1.633,72.99270072992701,0.0,12.542
0.004,1.633,72.99270072992701,0.0,12.534
-0.133,1.633,72.99270072992701,0.0,12.542
-0.133,1.631,72.99270072992701,0.0,12.554
-0.156,1.631,72.99270072992701,0.0,12.524
-0.165,1.631,72.99270072992701,0.0,12.498
-0.166,1.631,72.99270072992701,0.0,12.484
-0.145,1.631,72.99270072992701,0.0,12.46
-0.115,1.631,72.99270072992701,0.0,12.45
0.207,1.631,72.99270072992701,0.0,12.458
0.035,1.631,72.99270072992701,0.0,12.468
-0.061,1.628,72.99270072992701,0.0,12.432
0.048,1.628,72.99270072992701,0.0,12.406
0.311,1.628,72.99270072992701,0.0,12.42
0.357,1.628,72.99270072992701,0.0,12.396
-0.05,1.627,72.99270072992701,0.0,12.332
-0.076,1.628,67.993200679932,0.0,12.298
-0.099,1.628,67.993200679932,0.0,12.278
-0.12,1.627,67.993200679932,0.0,12.26
-0.123,1.627,67.993200679932,0.0,12.232
-0.108,1.626,67.993200679932,0.0,12.18
-0.092,1.626,67.993200679932,0.0,12.162
-0.062,1.626,67.993200679932,0.0,12.152
0.021,1.626,67.993200679932,0.0,12.156
0.284,1.624,67.993200679932,0.0,12.084
-0.017,1.623,67.993200679932,0.0,12.01
0.077,1.623,67.993200679932,0.0,12.006
0.294,1.623,67.993200679932,0.0,11.996
0.453,1.623,67.993200679932,0.0,11.994
0.036,1.623,67.993200679932,0.0,11.97
-0.042,1.623,67.993200679932,0.0,11.944
-0.065,1.621,64.993500649935,0.0,11.89
-0.083,1.623,64.993500649935,0.0,11.85
-0.075,1.622,64.993500649935,0.0,11.834
-0.069,1.621,64.993500649935,0.0,11.822
-0.067,1.621,64.993500649935,0.0,11.81
-0.066,1.621,64.993500649935,0.0,11.796
-0.084,1.619,64.993500649935,0.0,11.73
0.326,1.618,64.993500649935,0.0,11.644
-0.105,1.618,64.993500649935,0.0,11.598
-0.02,1.618,64.993500649935,0.0,11.586
0.172,1.618,64.993500649935,0.0,11.608
0.39,1.618,64.993500649935,0.0,11.674
-0.051,1.618,64.993500649935,0.0,11.778
-0.177,1.618,64.993500649935,0.0,11.902
-0.211,1.618,64.993500649935,0.0,12.004
-0.244,1.617,64.993500649935,0.0,12.08
-0.261,1.618,64.993500649935,0.0,12.178
-0.274,1.616,64.993500649935,0.0,12.286
-0.258,1.616,64.993500649935,0.0,12.382
-0.198,1.616,64.993500649935,0.0,12.486
0.073,1.616,64.993500649935,0.0,12.592
-0.233,1.616,64.993500649935,0.0,12.688
-0.113,1.616,64.993500649935,0.0,12.77
0.13,1.613,71.99280071992801,0.0,12.85
0.301,1.613,71.99280071992801,0.0,12.912
-0.144,1.613,71.99280071992801,0.0,12.946
-0.201,1.613,71.99280071992801,0.0,12.962
-0.195,1.613,71.99280071992801,0.0,12.95
-0.198,1.613,71.99280071992801,0.0,12.95
-0.184,1.613,71.99280071992801,0.0,12.924
-0.151,1.613,71.99280071992801,0.0,12.844
-0.168,1.611,71.99280071992801,0.0,12.74
0.325,1.611,71.99280071992801,0.0,12.618
-0.14,1.611,71.99280071992801,0.0,12.516
-0.009,1.611,71.99280071992801,0.0,12.438
0.215,1.609,75.99240075992401,0.0,12.354
0.433,1.608,75.99240075992401,0.0,12.272
-0.007,1.608,75.99240075992401,0.0,12.198
-0.083,1.608,75.99240075992401,0.0,12.144
-0.088,1.608,75.99240075992401,0.0,12.074
-0.1,1.608,75.99240075992401,0.0,11.996
-0.099,1.608,75.99240075992401,0.0,11.93
-0.103,1.608,75.99240075992401,0.0,11.884
-0.108,1.608,75.99240075992401,0.0,11.852
0.483,1.606,75.99240075992401,0.0,11.818
-0.222,1.607,75.99240075992401,0.0,11.794
-0.115,1.606,75.99240075992401,0.0,11.824
-0.011,1.606,73.992600739926,0.0,11.938
0.312,1.604,73.992600739926,0.0,12.092
0.117,1.604,73.992600739926,0.0,12.26
-0.229,1.603,73.992600739926,0.0,12.556
-0.219,1.603,73.992600739926,0.0,12.564
-0.222,1.603,73.992600739926,0.0,12.714
-0.224,1.603,73.992600739926,0.0,12.844
-0.195,1.603,73.992600739926,0.0,12.922
0.03,1.603,73.992600739926,0.0,12.896
-0.011,1.603,73.992600739926,0.0,12.792
-0.149,1.603,73.992600739926,0.0,12.718
-0.03,1.603,81.99180081991801,0.0,12.668
0.274,1.603,81.99180081991801,0.0,12.632
0.298,1.602,81.99180081991801,0.0,12.614
-0.111,1.601,81.99180081991801,0.0,12.602
-0.127,1.601,81.99180081991801,0.0,12.57
-0.14,1.599,81.99180081991801,0.0,12.448
-0.152,1.598,81.99180081991801,0.0,12.34
-0.15,1.598,81.99180081991801,0.0,12.296
-0.124,1.598,81.99180081991801,0.0,12.282
-0.144,1.598,81.99180081991801,0.0,12.282
0.399,1.598,81.99180081991801,0.0,12.314
-0.136,1.598,81.99180081991801,0.0,12.312
-0.002,1.598,81.99180081991801,0.0,12.254
0.205,1.598,81.99180081991801,0.0,12.21
0.492,1.598,81.99180081991801,0.0,12.18
0.08,1.597,81.99180081991801,0.0,12.106
-0.048,1.596,74.99250074992501,0.0,12.026
-0.048,1.596,74.99250074992501,0.0,11.93
-0.059,1.596,74.99250074992501,0.0,11.838
-0.059,1.596,74.99250074992501,0.0,11.768
-0.055,1.596,74.99250074992501,0.0,11.716
-0.05,1.594,74.99250074992501,0.0,11.668
-0.038,1.594,74.99250074992501,0.0,11.618
0.552,1.594,74.99250074992501,0.0,11.594
-0.281,1.594,74.99250074992501,0.0,11.558
-0.025,1.594,74.99250074992501,0.0,11.54
0.088,1.594,74.99250074992501,0.0,11.54
0.376,1.594,74.99250074992501,0.0,11.556
0.191,1.594,74.99250074992501,0.0,11.596
-0.128,1.594,68.99310068993101,0.0,11.666
-0.151,1.591,68.99310068993101,0.0,11.75
-0.183,1.591,68.99310068993101,0.0,11.806
-0.203,1.591,68.99310068993101,0.0,11.878
-0.216,1.589,68.99310068993101,0.0,11.964
-0.229,1.589,68.99310068993101,0.0,12.062
-0.217,1.589,68.99310068993101,0.0,12.152
0.363,1.589,68.99310068993101,0.0,12.244
-0.429,1.589,68.99310068993101,0.0,12.35
-0.174,1.589,68.99310068993101,0.0,12.476
-0.042,1.589,70.992900709929,0.0,12.606
0.271,1.589,70.992900709929,0.0,12.74
0.157,1.589,70.992900709929,0.0,12.872
-0.184,1.589,70.992900709929,0.0,12.996
-0.199,1.589,70.992900709929,0.0,13.072
-0.21,1.586,70.992900709929,0.0,13.1
-0.21,1.586,70.992900709929,0.0,13.076
-0.195,1.586,70.992900709929,0.0,13.0
-0.158,1.586,70.992900709929,0.0,12.904
0.26,1.586,70.992900709929,0.0,12.796
-0.14,1.584,70.992900709929,0.0,12.692
-0.072,1.584,70.992900709929,0.0,12.6
0.056,1.584,74.99250074992501,0.0,12.514
0.361,1.584,74.99250074992501,0.0,12.428
0.322,1.584,74.99250074992501,0.0,12.352
-0.061,1.584,74.99250074992501,0.0,12.28
-0.063,1.582,74.99250074992501,0.0,12.214
-0.07,1.581,74.99250074992501,0.0,12.126
-0.075,1.582,74.99250074992501,0.0,12.046
-0.057,1.581,74.99250074992501,0.0,11.99
-0.043,1.58,74.99250074992501,0.0,11.944
-0.039,1.579,74.99250074992501,0.0,11.92
-0.022,1.579,74.99250074992501,0.0,11.906
0.599,1.579,74.99250074992501,0.0,11.926
-0.235,1.579,74.99250074992501,0.0,11.952
0.029,1.579,74.99250074992501,0.0,11.95
0.162,1.579,74.99250074992501,0.0,11.94
0.479,1.579,74.99250074992501,0.0,11.924
0.326,1.579,74.99250074992501,0.0,11.862
-0.013,1.579,74.99250074992501,0.0,11.792
-0.021,1.579,66.993300669933,0.0,11.734
-0.04,1.576,66.993300669933,0.0,11.66
-0.065,1.579,66.993300669933,0.0,11.608
-0.08,1.576,66.993300669933,0.0,11.582
-0.097,1.576,66.993300669933,0.0,11.572
-0.114,1.579,66.993300669933,0.0,11.56
-0.123,1.579,66.993300669933,0.0,11.592
-0.144,1.579,66.993300669933,0.0,11.648
0.327,1.579,66.993300669933,0.0,11.73
-0.167,1.579,66.993300669933,0.0,11.828
-0.047,1.577,66.993300669933,0.0,11.928
0.147,1.579,62.99370062993701,0.0,12.024
0.42,1.579,62.99370062993701,0.0,12.118
-0.014,1.581,62.99370062993701,0.0,12.198
-0.155,1.581,62.99370062993701,0.0,12.28
-0.173,1.582,62.99370062993701,0.0,12.328
-0.193,1.587,62.99370062993701,0.0,12.374
-0.191,1.59,62.99370062993701,0.0,12.426
-0.18,1.592,62.99370062993701,0.0,12.474
-0.16,1.595,62.99370062993701,0.0,12.544
-0.124,1.596,62.99370062993701,0.0,12.572
0.491,1.598,62.99370062993701,0.0,12.57
-0.306,1.598,62.99370062993701,0.0,12.538
-0.025,1.598,62.99370062993701,0.0,12.508
0.121,1.602,69.99300069993001,0.0,12.486
0.44,1.603,69.99300069993001,0.0,12.47
0.192,1.602,69.99300069993001,0.0,12.45
-0.076,1.603,69.99300069993001,0.0,12.416
-0.08,1.603,69.99300069993001,0.0,12.374
-0.104,1.603,69.99300069993001,0.0,12.308
-0.109,1.606,69.99300069993001,0.0,12.252
-0.101,1.606,69.99300069993001,0.0,12.236
-0.09,1.609,69.99300069993001,0.0,12.23
-0.081,1.611,69.99300069993001,0.0,12.23
-0.053,1.611,69.99300069993001,0.0,12.2
0.473,1.611,69.99300069993001,0.0,12.144
-0.142,1.608,69.99300069993001,0.0,12.056
0.011,1.608,69.99300069993001,0.0,11.99
0.124,1.611,69.99300069993001,0.0,11.938
0.418,1.611,69.99300069993001,0.0,11.894
0.402,1.611,69.99300069993001,0.0,11.856
-0.012,1.615,69.99300069993001,0.0,11.83
-0.035,1.634,64.993500649935,0.0,11.808
-0.05,1.638,64.993500649935,0.0,11.766
-0.074,1.636,64.993500649935,0.0,11.726
-0.079,1.633,64.993500649935,0.0,11.712
-0.077,1.631,64.993500649935,0.0,11.696
-0.075,1.631,64.993500649935,0.0,11.688
-0.075,1.633,64.993500649935,0.0,11.698
-0.058,1.633,64.993500649935,0.0,11.732
0.462,1.636,64.993500649935,0.0,11.74
-0.187,1.637,64.993500649935,0.0,11.734
0.012,1.644,64.993500649935,0.0,11.72
0.163,1.646,64.993500649935,0.0,11.718
0.467,1.642,64.993500649935,0.0,11.732
0.151,1.642,64.993500649935,0.0,11.746
-0.129,1.639,62.99370062993701,0.0,11.778
-0.145,1.632,62.99370062993701,0.0,11.79
-0.176,1.631,62.99370062993701,0.0,11.792
-0.199,1.631,62.99370062993701,0.0,11.854
-0.212,1.629,62.99370062993701,0.0,11.954
-0.224,1.631,62.99370062993701,0.0,12.158
-0.207,1.629,62.99370062993701,0.0,12.166
0.153,1.632,62.99370062993701,0.0,12.298
-0.181,1.637,62.99370062993701,0.0,12.414
-0.039,1.648,62.99370062993701,0.0,12.516
0.034,1.659,62.99370062993701,0.0,12.592
0.27,1.661,67.993200679932,0.0,12.644
0.33,1.658,67.993200679932,0.0,12.656
-0.081,1.657,67.993200679932,0.0,12.616
-0.116,1.656,67.993200679932,0.0,12.492
-0.119,1.656,67.993200679932,0.0,12.49
-0.115,1.656,67.993200679932,0.0,12.446
-0.104,1.656,67.993200679932,0.0,12.406
-0.095,1.656,67.993200679932,0.0,12.328
-0.065,1.654,67.993200679932,0.0,12.22
0.365,1.653,67.993200679932,0.0,12.112
-0.091,1.651,67.993200679932,0.0,12.012
-0.018,1.651,67.993200679932,0.0,11.934
0.098,1.651,67.993200679932,0.0,11.904
0.388,1.651,67.993200679932,0.0,11.88
0.394,1.648,67.993200679932,0.0,11.87
-0.032,1.648,67.993200679932,0.0,11.85
-0.051,1.648,70.992900709929,0.0,11.828
-0.08,1.646,70.992900709929,0.0,11.778
-0.098,1.646,70.992900709929,0.0,11.738
-0.102,1.646,70.992900709929,0.0,11.71
-0.128,1.646,70.992900709929,0.0,11.724
-0.112,1.646,70.992900709929,0.0,11.72
-0.014,1.646,70.992900709929,0.0,11.672
0.093,1.646,70.992900709929,0.0,11.586
-0.09,1.644,70.992900709929,0.0,11.474
0.012,1.643,70.992900709929,0.0,11.368
0.291,1.643,69.99300069993001,0.0,11.324
0.293,1.643,69.99300069993001,0.0,11.376
-0.029,1.643,69.99300069993001,0.0,11.518
-0.177,1.643,69.99300069993001,0.0,11.718
-0.192,1.641,69.99300069993001,0.0,11.954
-0.285,1.641,69.99300069993001,0.0,12.232
-0.259,1.641,69.99300069993001,0.0,12.24
-0.256,1.643,69.99300069993001,0.0,12.402
0.076,1.643,69.99300069993001,0.0,12.62
-0.171,1.643,69.99300069993001,0.0,12.77
-0.191,1.641,69.99300069993001,0.0,12.846
0.207,1.641,77.99220077992202,0.0,12.698
0.322,1.638,77.99220077992202,0.0,12.56
0.297,1.638,77.99220077992202,0.0,12.682
-0.136,1.637,77.99220077992202,0.0,12.9
-0.153,1.638,77.99220077992202,0.0,12.888
-0.178,1.636,77.99220077992202,0.0,13.056
-0.201,1.636,77.99220077992202,0.0,13.066
-0.207,1.634,77.99220077992202,0.0,13.14
-0.148,1.633,77.99220077992202,0.0,13.276
0.341,1.633,77.99220077992202,0.0,13.342
-0.29,1.631,77.99220077992202,0.0,13.39
-0.104,1.631,77.99220077992202,0.0,13.51
0.037,1.631,77.99220077992202,0.0,13.568
0.317,1.631,77.99220077992202,0.0,13.578
0.278,1.631,77.99220077992202,0.0,13.61
-0.127,1.631,77.99220077992202,0.0,13.626
-0.135,1.628,77.99220077992202,0.0,13.622
-0.158,1.628,77.99220077992202,0.0,13.612
-0.15,1.628,77.99220077992202,0.0,13.578
-0.177,1.627,77.99220077992202,0.0,13.514
-0.145,1.626,77.99220077992202,0.0,13.506
0.367,1.626,77.99220077992202,0.0,13.516
-0.301,1.627,77.99220077992202,0.0,13.524
-0.107,1.627,77.99220077992202,0.0,13.482
0.019,1.624,76.992300769923,0.0,13.464
0.306,1.624,76.992300769923,0.0,13.448
0.242,1.626,76.992300769923,0.0,13.468
-0.155,1.623,76.992300769923,0.0,13.448
-0.16,1.623,76.992300769923,0.0,13.432
-0.181,1.624,76.992300769923,0.0,13.414
-0.203,1.623,76.992300769923,0.0,13.384
-0.196,1.622,76.992300769923,0.0,13.36
-0.193,1.622,76.992300769923,0.0,13.34
-0.19,1.622,76.992300769923,0.0,13.31
0.295,1.622,76.992300769923,0.0,13.338
-0.259,1.622,76.992300769923,0.0,13.322
-0.099,1.621,76.992300769923,0.0,13.242
0.076,1.619,73.992600739926,0.0,13.18
0.376,1.618,73.992600739926,0.0,13.122
-0.034,1.621,73.992600739926,0.0,13.12
-0.214,1.618,73.992600739926,0.0,13.17
-0.236,1.618,73.992600739926,0.0,13.212
-0.268,1.618,73.992600739926,0.0,13.304
-0.275,1.618,73.992600739926,0.0,13.434
-0.27,1.618,73.992600739926,0.0,13.594
-0.267,1.618,73.992600739926,0.0,13.764
0.287,1.617,73.992600739926,0.0,13.924
-0.38,1.616,73.992600739926,0.0,14.064
-0.125,1.616,73.992600739926,0.0,14.186
0.045,1.616,75.99240075992401,0.0,14.26
0.35,1.616,75.99240075992401,0.0,14.266
0.048,1.616,75.99240075992401,0.0,14.16
-0.143,1.614,75.99240075992401,0.0,13.984
-0.148,1.614,75.99240075992401,0.0,13.838
-0.166,1.616,75.99240075992401,0.0,13.77
-0.165,1.616,75.99240075992401,0.0,13.69
-0.17,1.616,75.99240075992401,0.0,13.582
-0.139,1.613,75.99240075992401,0.0,13.526
0.293,1.613,75.99240075992401,0.0,13.49
-0.139,1.613,75.99240075992401,0.0,13.496
-0.087,1.613,75.99240075992401,0.0,13.448
0.024,1.613,73.992600739926,0.0,13.418
0.333,1.613,73.992600739926,0.0,13.41
0.323,1.611,73.992600739926,0.0,13.404
-0.102,1.612,73.992600739926,0.0,13.402
-0.118,1.611,73.992600739926,0.0,13.416
-0.127,1.611,73.992600739926,0.0,13.332
-0.132,1.611,73.992600739926,0.0,13.18
-0.135,1.611,73.992600739926,0.0,13.106
-0.109,1.611,73.992600739926,0.0,13.084
-0.063,1.611,73.992600739926,0.0,13.072
0.216,1.611,73.992600739926,0.0,13.068
-0.088,1.611,73.992600739926,0.0,13.082
0.009,1.609,73.992600739926,0.0,13.096
0.252,1.608,75.99240075992401,0.0,13.108
0.409,1.608,75.99240075992401,0.0,13.102
-0.077,1.608,75.99240075992401,0.0,13.112
-0.149,1.608,75.99240075992401,0.0,13.112
-0.167,1.608,75.99240075992401,0.0,13.09
-0.197,1.608,75.99240075992401,0.0,13.106
-0.213,1.608,75.99240075992401,0.0,13.162
-0.221,1.606,75.99240075992401,0.0,13.274
-0.213,1.606,75.99240075992401,0.0,13.43
-0.165,1.607,75.99240075992401,0.0,13.598
0.116,1.609,75.99240075992401,0.0,13.74
-0.196,1.613,75.99240075992401,0.0,13.868
-0.081,1.617,75.99240075992401,0.0,13.978
0.173,1.618,70.992900709929,0.0,14.088
0.365,1.618,70.992900709929,0.0,14.182
-0.079,1.622,70.992900709929,0.0,14.24
-0.15,1.626,70.992900709929,0.0,14.228
-0.165,1.628,70.992900709929,0.0,14.13
-0.179,1.631,70.992900709929,0.0,14.042
-0.181,1.633,70.992900709929,0.0,13.996
-0.175,1.632,70.992900709929,0.0,13.922
-0.16,1.632,70.992900709929,0.0,13.842
0.46,1.631,70.992900709929,0.0,13.782
-0.334,1.631,70.992900709929,0.0,13.746
-0.085,1.631,70.992900709929,0.0,13.712
0.073,1.633,72.99270072992701,0.0,13.68
0.433,1.633,72.99270072992701,0.0,13.61
0.177,1.636,72.99270072992701,0.0,13.522
-0.117,1.637,72.99270072992701,0.0,13.458
-0.109,1.637,72.99270072992701,0.0,13.352
-0.115,1.636,72.99270072992701,0.0,13.194
-0.132,1.636,72.99270072992701,0.0,13.102
-0.138,1.636,72.99270072992701,0.0,13.07
-0.142,1.638,72.99270072992701,0.0,13.034
-0.072,1.634,72.99270072992701,0.0,12.982
0.12,1.633,72.99270072992701,0.0,12.99
-0.157,1.633,72.99270072992701,0.0,13.074
-0.059,1.634,72.99270072992701,0.0,13.284
0.21,1.636,74.99250074992501,0.0,13.604
0.361,1.636,74.99250074992501,0.0,13.912
-0.107,1.637,74.99250074992501,0.0,14.124
-0.184,1.636,74.99250074992501,0.0,14.278
-0.2,1.636,74.99250074992501,0.0,14.306
-0.186,1.636,74.99250074992501,0.0,14.326
-0.115,1.634,74.99250074992501,0.0,14.336
-0.059,1.633,74.99250074992501,0.0,14.328
0.489,1.633,74.99250074992501,0.0,14.304
-0.231,1.632,74.99250074992501,0.0,14.122
0.012,1.632,74.99250074992501,0.0,13.954
0.141,1.633,74.99250074992501,0.0,13.802
0.507,1.628,74.99250074992501,0.0,13.648
0.342,1.702,74.99250074992501,0.0,13.568
0.022,1.634,74.99250074992501,0.0,13.64
0.038,1.638,74.99250074992501,0.0,13.648
0.032,1.638,74.99250074992501,0.0,13.404
0.005,1.634,74.99250074992501,0.0,13.224
-0.003,1.632,74.99250074992501,0.0,13.26
0.009,1.631,74.99250074992501,0.0,13.354
0.123,1.631,74.99250074992501,0.0,13.336
0.34,1.628,78.99210078992101,0.0,13.232
0.012,1.626,78.99210078992101,0.0,13.19
0.11,1.624,78.99210078992101,0.0,13.176
0.375,1.623,78.99210078992101,0.0,13.206
0.488,1.623,78.99210078992101,0.0,13.196
0.028,1.621,78.99210078992101,0.0,13.212
-0.025,1.621,78.99210078992101,0.0,13.26
-0.045,1.618,55.994400559944005,0.0,13.242
-0.071,1.618,55.994400559944005,0.0,13.164
-0.079,1.618,55.994400559944005,0.0,13.072
-0.06,1.618,55.994400559944005,0.0,13.04
-0.048,1.618,55.994400559944005,0.0,13.042
0.561,1.618,55.994400559944005,0.0,13.014
-0.189,1.618,55.994400559944005,0.0,12.992
0.03,1.616,55.994400559944005,0.0,13.03
0.179,1.616,55.994400559944005,0.0,13.048
0.505,1.613,55.994400559944005,0.0,12.958
0.232,1.613,55.994400559944005,0.0,12.88
-0.015,1.613,55.994400559944005,0.0,12.92
-0.014,1.613,55.994400559944005,0.0,13.006
-0.027,1.613,55.994400559944005,0.0,12.996
-0.027,1.611,55.994400559944005,0.0,12.898
-0.023,1.611,55.994400559944005,0.0,12.79
-0.012,1.611,55.994400559944005,0.0,12.724
0.011,1.609,55.994400559944005,0.0,12.72
0.592,1.608,55.994400559944005,0.0,12.754
-0.135,1.608,55.994400559944005,0.0,12.79
0.069,1.608,55.994400559944005,0.0,12.792
0.224,1.608,55.994400559944005,0.0,12.794
0.53,1.608,55.994400559944005,0.0,12.776
0.264,1.607,55.994400559944005,0.0,12.768
0.02,1.606,55.994400559944005,0.0,12.796
0.009,1.606,55.994400559944005,0.0,12.734
-0.016,1.606,70.992900709929,0.0,12.636
-0.03,1.603,70.992900709929,0.0,12.556
-0.031,1.603,70.992900709929,0.0,12.522
-0.024,1.603,70.992900709929,0.0,12.512
-0.009,1.603,70.992900709929,0.0,12.492
0.383,1.603,70.992900709929,0.0,12.45
-0.002,1.602,70.992900709929,0.0,12.408
0.092,1.601,70.992900709929,0.0,12.37
0.299,1.601,70.992900709929,0.0,12.322
0.48,1.601,70.992900709929,0.0,12.282
0.028,1.598,70.992900709929,0.0,12.244
-0.07,1.598,72.99270072992701,0.0,12.222
-0.107,1.598,72.99270072992701,0.0,12.17
-0.139,1.598,72.99270072992701,0.0,12.146
-0.164,1.598,72.99270072992701,0.0,12.17
-0.184,1.598,72.99270072992701,0.0,12.248
-0.184,1.597,72.99270072992701,0.0,12.322
0.33,1.596,72.99270072992701,0.0,12.384
-0.304,1.596,72.99270072992701,0.0,12.424
-0.108,1.596,72.99270072992701,0.0,12.474
0.066,1.598,74.99250074992501,0.0,12.578
0.364,1.598,74.99250074992501,0.0,12.69
-0.001,1.599,74.99250074992501,0.0,12.812
-0.189,1.601,74.99250074992501,0.0,12.948
-0.222,1.599,74.99250074992501,0.0,13.064
-0.246,1.598,74.99250074992501,0.0,13.148
-0.263,1.598,74.99250074992501,0.0,13.236
-0.24,1.596,74.99250074992501,0.0,13.312
0.315,1.596,74.99250074992501,0.0,13.4
-0.386,1.596,74.99250074992501,0.0,13.482
-0.159,1.594,74.99250074992501,0.0,13.532
-0.037,1.594,80.991900809919,0.0,13.57
0.275,1.594,80.991900809919,0.0,13.578
0.165,1.594,80.991900809919,0.0,13.536
-0.174,1.591,80.991900809919,0.0,13.518
-0.191,1.591,80.991900809919,0.0,13.546
-0.202,1.591,80.991900809919,0.0,13.518
-0.205,1.59,80.991900809919,0.0,13.444
-0.174,1.589,80.991900809919,0.0,13.376
-0.121,1.589,80.991900809919,0.0,13.35
0.158,1.589,80.991900809919,0.0,13.364
-0.15,1.589,80.991900809919,0.0,13.376
-0.021,1.589,80.991900809919,0.0,13.402
0.279,1.589,81.99180081991801,0.0,13.436
0.423,1.586,81.99180081991801,0.0,13.404
-0.033,1.586,81.99180081991801,0.0,13.376
-0.059,1.586,81.99180081991801,0.0,13.288
-0.059,1.586,81.99180081991801,0.0,13.126
-0.079,1.586,81.99180081991801,0.0,12.95
-0.07,1.584,81.99180081991801,0.0,12.774
0.495,1.584,81.99180081991801,0.0,12.646
-0.278,1.584,81.99180081991801,0.0,12.606
-0.049,1.584,81.99180081991801,0.0,12.618
0.092,1.584,85.99140085991401,0.0,12.682
0.401,1.584,85.99140085991401,0.0,12.76
0.219,1.584,85.99140085991401,0.0,12.792
-0.101,1.584,85.99140085991401,0.0,12.828
-0.097,1.584,85.99140085991401,0.0,12.786
-0.108,1.584,85.99140085991401,0.0,12.71
-0.112,1.582,85.99140085991401,0.0,12.654
-0.085,1.584,85.99140085991401,0.0,12.604
0.428,1.581,85.99140085991401,0.0,12.578
-0.192,1.581,85.99140085991401,0.0,12.552
-0.043,1.579,85.99140085991401,0.0,12.53
0.076,1.579,83.991600839916,0.0,12.49
0.395,1.579,83.991600839916,0.0,12.47
0.295,1.579,83.991600839916,0.0,12.472
-0.052,1.579,83.991600839916,0.0,12.47
-0.048,1.579,83.991600839916,0.0,12.454
-0.054,1.579,83.991600839916,0.0,12.394
-0.064,1.579,83.991600839916,0.0,12.322
-0.06,1.579,83.991600839916,0.0,12.276
-0.03,1.577,83.991600839916,0.0,12.226
0.083,1.576,83.991600839916,0.0,12.2
0.249,1.576,83.991600839916,0.0,12.186
-0.001,1.576,83.991600839916,0.0,12.166
0.079,1.574,83.991600839916,0.0,12.126
0.314,1.574,83.991600839916,0.0,12.042
0.408,1.574,83.991600839916,0.0,11.942
-0.041,1.574,83.991600839916,0.0,11.884
-0.104,1.574,74.99250074992501,0.0,11.882
-0.131,1.574,74.99250074992501,0.0,11.912
-0.155,1.574,74.99250074992501,0.0,11.992
-0.164,1.574,74.99250074992501,0.0,12.116
-0.16,1.574,74.99250074992501,0.0,12.236
-0.201,1.574,74.99250074992501,0.0,12.352
0.251,1.574,74.99250074992501,0.0,12.446
-0.219,1.574,74.99250074992501,0.0,12.546
-0.093,1.574,74.99250074992501,0.0,12.652
0.122,1.574,75.99240075992401,0.0,12.784
0.342,1.574,75.99240075992401,0.0,12.926
-0.062,1.574,75.99240075992401,0.0,13.018
-0.144,1.572,75.99240075992401,0.0,13.062
-0.159,1.571,75.99240075992401,0.0,13.052
-0.168,1.571,75.99240075992401,0.0,13.02
-0.176,1.571,75.99240075992401,0.0,12.962
-0.111,1.571,75.99240075992401,0.0,12.886
-0.073,1.57,75.99240075992401,0.0,12.828
0.456,1.569,75.99240075992401,0.0,12.746
-0.128,1.569,75.99240075992401,0.0,12.688
0.055,1.569,75.99240075992401,0.0,12.61
0.221,1.569,75.99240075992401,0.0,12.298
0.527,1.569,75.99240075992401,0.0,12.012
0.114,1.569,75.99240075992401,0.0,11.822
-0.058,1.569,74.99250074992501,0.0,11.752
-0.053,1.569,74.99250074992501,0.0,11.758
-0.076,1.569,74.99250074992501,0.0,11.814
-0.089,1.566,74.99250074992501,0.0,11.848
-0.094,1.566,74.99250074992501,0.0,11.872
-0.064,1.566,74.99250074992501,0.0,11.89
-0.009,1.565,74.99250074992501,0.0,11.898
0.228,1.564,74.99250074992501,0.0,11.886
-0.106,1.564,74.99250074992501,0.0,11.89
-0.023,1.564,74.99250074992501,0.0,11.92
0.219,1.564,72.99270072992701,0.0,12.018
0.378,1.564,72.99270072992701,0.0,12.166
-0.101,1.564,72.99270072992701,0.0,12.292
-0.187,1.564,72.99270072992701,0.0,12.442
-0.22,1.564,72.99270072992701,0.0,12.508
-0.226,1.564,72.99270072992701,0.0,12.528
-0.226,1.564,72.99270072992701,0.0,12.69
-0.202,1.564,72.99270072992701,0.0,12.878
0.011,1.564,72.99270072992701,0.0,12.964
-0.053,1.562,72.99270072992701,0.0,12.958
-0.159,1.561,72.99270072992701,0.0,12.972
-0.03,1.561,77.99220077992202,0.0,12.972
0.241,1.56,77.99220077992202,0.0,12.954
0.273,1.559,77.99220077992202,0.0,12.896
-0.126,1.559,77.99220077992202,0.0,12.814
-0.145,1.559,77.99220077992202,0.0,12.8
-0.162,1.559,77.99220077992202,0.0,12.784
-0.173,1.559,77.99220077992202,0.0,12.746
-0.171,1.559,77.99220077992202,0.0,12.632
-0.141,1.559,77.99220077992202,0.0,12.49
-0.124,1.559,77.99220077992202,0.0,12.376
0.374,1.559,77.99220077992202,0.0,12.266
-0.14,1.559,77.99220077992202,0.0,12.156
0.035,1.559,77.99220077992202,0.0,12.038
0.218,1.556,77.99220077992202,0.0,11.91
0.517,1.559,77.99220077992202,0.0,11.806
0.142,1.556,77.99220077992202,0.0,11.73
-0.026,1.556,77.99220077992202,0.0,11.672
-0.095,1.556,73.992600739926,0.0,11.594
-0.166,1.555,73.992600739926,0.0,11.486
-0.174,1.554,73.992600739926,0.0,11.432
-0.21,1.554,73.992600739926,0.0,11.49
-0.225,1.554,73.992600739926,0.0,11.632
-0.232,1.554,73.992600739926,0.0,11.816
0.365,1.554,73.992600739926,0.0,12.018
-0.455,1.552,73.992600739926,0.0,12.206
-0.177,1.554,73.992600739926,0.0,12.372
0.023,1.554,69.99300069993001,0.0,12.498
0.339,1.554,69.99300069993001,0.0,12.554
0.115,1.551,69.99300069993001,0.0,12.602
-0.225,1.552,69.99300069993001,0.0,12.628
-0.235,1.551,69.99300069993001,0.0,12.54
-0.227,1.549,69.99300069993001,0.0,12.498
-0.309,1.549,69.99300069993001,0.0,12.594
-0.29,1.549,69.99300069993001,0.0,12.76
-0.259,1.549,69.99300069993001,0.0,12.884
0.13,1.549,69.99300069993001,0.0,12.902
-0.2,1.549,69.99300069993001,0.0,12.852
-0.143,1.549,69.99300069993001,0.0,12.8
-0.044,1.549,74.99250074992501,0.0,12.74
0.264,1.549,74.99250074992501,0.0,12.662
0.251,1.549,74.99250074992501,0.0,12.54
-0.107,1.547,74.99250074992501,0.0,12.462
-0.139,1.546,74.99250074992501,0.0,12.378
-0.14,1.546,74.99250074992501,0.0,12.288
-0.1,1.546,74.99250074992501,0.0,12.168
-0.111,1.546,74.99250074992501,0.0,12.084
-0.134,1.546,74.99250074992501,0.0,12.03
-0.092,1.546,74.99250074992501,0.0,12.0
0.484,1.546,74.99250074992501,0.0,11.958
-0.262,1.546,74.99250074992501,0.0,11.93
-0.037,1.545,74.99250074992501,0.0,11.934
0.108,1.544,71.99280071992801,0.0,11.948
0.401,1.544,71.99280071992801,0.0,11.962
0.361,1.544,71.99280071992801,0.0,11.966
-0.054,1.544,71.99280071992801,0.0,11.974
1.286,1.544,71.99280071992801,0.0,11.968
3.677,1.544,71.99280071992801,0.0,11.93
-9.943,1.544,71.99280071992801,0.0,11.906
-9.943,1.545,71.99280071992801,0.0,11.906
-9.943,1.542,71.99280071992801,0.0,11.914
-9.943,1.547,71.99280071992801,0.0,11.954
-9.943,1.538,71.99280071992801,0.0,12.02
-9.943,1.588,71.99280071992801,0.0,12.12
-9.943,1.596,71.99280071992801,0.0,12.214
-9.943,1.595,71.99280071992801,0.0,12.324
-9.943,1.594,71.99280071992801,0.0,12.416
-9.943,1.594,71.99280071992801,0.0,12.472
-9.943,1.594,71.99280071992801,0.0,12.534
-9.943,1.594,71.99280071992801,0.0,12.596
-9.943,1.594,71.99280071992801,0.0,12.654
-9.943,1.594,71.99280071992801,0.0,12.718
-9.943,1.594,71.99280071992801,0.0,12.784
-9.943,1.594,71.99280071992801,0.0,12.836
-9.943,1.594,71.99280071992801,0.0,12.848
-9.943,1.594,71.99280071992801,0.0,12.854
-9.943,1.594,71.99280071992801,0.0,12.87
-9.943,1.594,71.99280071992801,0.0,12.898
-9.943,1.594,71.99280071992801,0.0,12.87
-9.943,1.594,71.99280071992801,0.0,12.814
-9.943,1.594,71.99280071992801,0.0,12.724
-9.943,1.594,71.99280071992801,0.0,12.628
-9.943,1.594,71.99280071992801,0.0,12.534
-9.943,1.594,71.99280071992801,0.0,12.47
-9.943,1.594,71.99280071992801,0.0,12.39
-9.943,1.594,71.99280071992801,0.0,12.32
-9.943,1.594,71.99280071992801,0.0,12.272
-9.943,1.594,71.99280071992801,0.0,12.246
-9.943,1.594,71.99280071992801,0.0,12.238
-9.891,1.594,71.99280071992801,0.0,12.212
9.891,1.594,71.99280071992801,0.0,12.174
9.941,1.594,71.99280071992801,0.0,12.132
9.941,1.594,71.99280071992801,0.0,12.082
4.996,1.594,71.99280071992801,0.0,12.02
-6.352,1.594,71.99280071992801,0.0,11.966
-9.943,1.594,71.99280071992801,0.0,11.91
-9.943,1.594,71.99280071992801,0.0,11.876
-9.943,1.594,71.99280071992801,0.0,11.848
-9.943,1.594,71.99280071992801,0.0,11.798
-9.943,1.592,71.99280071992801,0.0,11.772
-9.943,1.594,71.99280071992801,0.0,11.77
-9.943,1.594,71.99280071992801,0.0,11.766
-1.475,1.594,71.99280071992801,0.0,11.802
9.941,1.592,71.99280071992801,0.0,11.89
9.941,1.591,71.99280071992801,0.0,11.992
9.941,1.591,71.99280071992801,0.0,12.128
9.941,1.591,71.99280071992801,0.0,12.302
9.941,1.591,71.99280071992801,0.0,12.474
9.941,1.591,71.99280071992801,0.0,12.648
9.941,1.59,71.99280071992801,0.0,12.866
9.941,1.589,71.99280071992801,0.0,13.068
9.941,1.589,71.99280071992801,0.0,13.198
9.941,1.589,71.99280071992801,0.0,13.192
9.942,1.589,71.99280071992801,0.0,13.09
-3.084,1.589,71.99280071992801,0.0,12.978
-2.534,1.589,100.98990100989901,0.0,12.874
-9.943,1.589,100.98990100989901,0.0,12.808
-9.943,1.589,100.98990100989901,0.0,12.788
-9.943,1.589,100.98990100989901,0.0,12.776
-9.943,1.589,100.98990100989901,0.0,12.65
-9.943,1.589,100.98990100989901,0.0,12.618
1.812,1.589,100.98990100989901,0.0,12.662
4.064,1.586,100.98990100989901,0.0,12.626
9.941,1.586,100.98990100989901,0.0,12.572
9.941,1.586,100.98990100989901,0.0,12.558
-1.892,1.584,100.98990100989901,0.0,12.58
9.952,1.584,100.98990100989901,0.0,12.612
9.941,1.584,100.98990100989901,0.0,12.604
9.941,1.584,100.98990100989901,0.0,12.64
9.908,1.584,100.98990100989901,0.0,12.626
9.941,1.584,100.98990100989901,0.0,12.506
9.941,1.584,100.98990100989901,0.0,12.384
9.941,1.584,100.98990100989901,0.0,12.294
9.941,1.584,100.98990100989901,0.0,12.224
9.941,1.584,100.98990100989901,0.0,12.162
9.941,1.584,100.98990100989901,0.0,12.084
9.487,1.584,100.98990100989901,0.0,12.014
2.885,1.584,79.99200079992,0.0,11.952
0.88,1.584,79.99200079992,0.0,11.864
0.634,1.584,79.99200079992,0.0,11.772
-9.943,1.584,79.99200079992,0.0,11.742
-9.943,1.584,79.99200079992,0.0,11.776
-9.943,1.584,79.99200079992,0.0,11.816
-9.943,1.58,79.99200079992,0.0,11.892
5.278,1.581,79.99200079992,0.0,11.968
9.941,1.581,79.99200079992,0.0,12.056
6.373,1.581,79.99200079992,0.0,12.184
-9.946,1.58,79.99200079992,0.0,12.342
-6.662,1.579,79.99200079992,0.0,12.57
9.943,1.579,79.99200079992,0.0,12.922
-4.98,1.579,79.99200079992,0.0,12.994
-9.943,1.579,79.99200079992,0.0,13.036
-9.943,1.579,79.99200079992,0.0,13.064
-9.897,1.579,79.99200079992,0.0,13.052
-9.721,1.579,79.99200079992,0.0,13.066
-9.943,1.579,79.99200079992,0.0,13.098
-9.943,1.579,79.99200079992,0.0,13.104
-9.943,1.579,79.99200079992,0.0,13.066
-9.943,1.577,79.99200079992,0.0,13.016
-9.943,1.577,79.99200079992,0.0,12.984
-9.943,1.577,79.99200079992,0.0,12.974
-9.943,1.576,79.99200079992,0.0,12.942
-9.943,1.575,79.99200079992,0.0,12.89
-9.943,1.574,79.99200079992,0.0,12.872
-9.943,1.574,79.99200079992,0.0,12.8
-9.943,1.574,79.99200079992,0.0,12.774
-9.943,1.574,79.99200079992,0.0,12.784
-9.943,1.574,79.99200079992,0.0,12.772
-9.943,1.574,79.99200079992,0.0,12.748
-9.943,1.574,79.99200079992,0.0,12.736
-9.943,1.574,79.99200079992,0.0,12.742
-9.943,1.574,79.99200079992,0.0,12.706
-9.943,1.574,79.99200079992,0.0,12.65
-9.943,1.574,79.99200079992,0.0,12.608
-9.943,1.571,79.99200079992,0.0,12.586
-9.943,1.572,79.99200079992,0.0,12.542
-3.61,1.571,79.99200079992,0.0,12.518
9.941,1.571,79.99200079992,0.0,12.492
9.941,1.571,79.99200079992,0.0,12.498
9.941,1.57,79.99200079992,0.0,12.514
9.941,1.573,79.99200079992,0.0,12.514
9.941,1.541,79.99200079992,0.0,12.524
9.941,1.536,79.99200079992,0.0,12.552
9.941,1.516,79.99200079992,0.0,12.56
9.941,1.515,79.99200079992,0.0,12.562
9.941,1.515,79.99200079992,0.0,12.51
9.941,1.514,79.99200079992,0.0,12.474
9.941,1.514,79.99200079992,0.0,12.434
9.941,1.514,79.99200079992,0.0,12.408
9.941,1.514,79.99200079992,0.0,12.396
9.941,1.514,79.99200079992,0.0,12.42
9.941,1.514,79.99200079992,0.0,12.438
9.941,1.514,79.99200079992,0.0,12.452
9.941,1.514,79.99200079992,0.0,12.5
9.941,1.514,79.99200079992,0.0,12.538
9.941,1.514,79.99200079992,0.0,12.49
9.941,1.514,79.99200079992,0.0,12.41
9.941,1.514,79.99200079992,0.0,12.332
9.941,1.514,79.99200079992,0.0,12.232
9.941,1.514,79.99200079992,0.0,12.082
9.941,1.512,79.99200079992,0.0,11.976
9.941,1.511,79.99200079992,0.0,11.896
9.941,1.511,79.99200079992,0.0,11.854
9.941,1.511,79.99200079992,0.0,11.904
9.941,1.511,79.99200079992,0.0,12.014
9.941,1.509,79.99200079992,0.0,12.152
9.941,1.509,79.99200079992,0.0,12.31
9.941,1.509,79.99200079992,0.0,12.45
9.941,1.51,79.99200079992,0.0,12.592
9.844,1.509,79.99200079992,0.0,12.746
8.993,1.509,79.99200079992,0.0,12.904
8.421,1.509,79.99200079992,0.0,13.09
7.949,1.509,79.99200079992,0.0,13.274
7.502,1.509,79.99200079992,0.0,13.432
7.115,1.509,79.99200079992,0.0,13.554
6.759,1.508,79.99200079992,0.0,13.614
6.429,1.507,79.99200079992,0.0,13.572
6.655,1.507,79.99200079992,0.0,13.392
5.667,1.507,79.99200079992,0.0,13.264
5.578,1.507,79.99200079992,0.0,13.012
5.341,1.507,79.99200079992,0.0,12.628
5.357,1.505,79.99200079992,0.0,12.308
4.643,1.505,79.99200079992,0.0,12.042
4.156,1.507,79.99200079992,0.0,11.844
3.834,1.507,79.99200079992,0.0,11.68
3.489,1.507,79.99200079992,0.0,11.478
3.206,1.504,79.99200079992,0.0,11.382
2.943,1.504,79.99200079992,0.0,11.314
2.677,1.504,79.99200079992,0.0,11.308
2.914,1.504,32.996700329967005,0.0,11.336
2.042,1.504,32.996700329967005,0.0,11.39
1.983,1.504,32.996700329967005,0.0,11.43
1.927,1.504,32.996700329967005,0.0,11.46
1.959,1.503,32.996700329967005,0.0,11.488
1.703,1.502,32.996700329967005,0.0,11.474
1.083,1.502,32.996700329967005,0.0,11.412
0.787,1.502,32.996700329967005,0.0,11.368
0.6,1.502,32.996700329967005,0.0,11.208
0.346,1.502,32.996700329967005,0.0,11.2
0.133,1.502,32.996700329967005,0.0,11.09
-0.029,1.499,32.996700329967005,0.0,11.052
-0.214,1.499,32.996700329967005,0.0,11.106
0.191,1.499,32.996700329967005,0.0,11.22
-0.763,1.499,32.996700329967005,0.0,11.414
-0.715,1.499,32.996700329967005,0.0,11.618
-0.698,1.499,32.996700329967005,0.0,11.798
-0.519,1.499,32.996700329967005,0.0,12.03
-0.927,1.499,32.996700329967005,0.0,12.336
-1.287,1.499,32.996700329967005,0.0,12.624
-1.382,1.498,32.996700329967005,0.0,12.764
-1.467,1.498,32.996700329967005,0.0,12.924
-1.579,1.497,32.996700329967005,0.0,12.992
-1.653,1.497,32.996700329967005,0.0,12.862
-1.112,1.497,32.996700329967005,0.0,12.638
-2.032,1.497,32.996700329967005,0.0,12.426
-1.917,1.497,32.996700329967005,0.0,12.266
-1.898,1.494,32.996700329967005,0.0,12.122
-1.639,1.494,32.996700329967005,0.0,11.956
-1.853,1.495,32.996700329967005,0.0,11.824
-2.34,1.494,32.996700329967005,0.0,11.798
-2.356,1.494,32.996700329967005,0.0,11.82
-2.44,1.494,32.996700329967005,0.0,11.884
-2.524,1.494,32.996700329967005,0.0,11.946
-2.572,1.494,32.996700329967005,0.0,11.988
-2.629,1.494,32.996700329967005,0.0,12.036
-2.103,1.493,32.996700329967005,0.0,12.086
-2.958,1.493,32.996700329967005,0.0,12.142
-2.769,1.492,32.996700329967005,0.0,12.168
-2.683,1.492,32.996700329967005,0.0,12.15
-2.417,1.492,32.996700329967005,0.0,12.166
-2.696,1.492,32.996700329967005,0.0,12.21
-3.001,1.492,32.996700329967005,0.0,12.218
-3.052,1.492,32.996700329967005,0.0,12.212
-3.103,1.492,32.996700329967005,0.0,12.17
-3.145,1.489,32.996700329967005,0.0,12.144
-3.176,1.489,32.996700329967005,0.0,12.136
-3.198,1.489,32.996700329967005,0.0,12.116
-3.206,1.489,32.996700329967005,0.0,12.066
-3.202,1.489,32.996700329967005,0.0,12.012
-2.673,1.489,32.996700329967005,0.0,11.956
-3.455,1.489,32.996700329967005,0.0,11.888
-3.235,1.489,32.996700329967005,0.0,11.854
-3.138,1.488,32.996700329967005,0.0,11.846
-2.911,1.487,32.996700329967005,0.0,11.818
-3.125,1.487,32.996700329967005,0.0,11.79
-3.436,1.487,32.996700329967005,0.0,11.786
-3.498,1.487,32.996700329967005,0.0,11.782
-3.577,1.487,32.996700329967005,0.0,11.804
-3.607,1.487,32.996700329967005,0.0,11.932
-3.619,1.487,32.996700329967005,0.0,12.104
-3.643,1.485,32.996700329967005,0.0,12.25
-3.648,1.487,32.996700329967005,0.0,12.414
-3.146,1.487,32.996700329967005,0.0,12.554
-3.82,1.487,32.996700329967005,0.0,12.652
-3.631,1.487,32.996700329967005,0.0,12.798
-3.504,1.485,32.996700329967005,0.0,13.0
-3.216,1.484,32.996700329967005,0.0,13.154
-3.276,1.484,32.996700329967005,0.0,13.282
-3.624,1.484,32.996700329967005,0.0,13.384
-3.643,1.484,32.996700329967005,0.0,13.432
-3.658,1.484,32.996700329967005,0.0,13.428
-3.653,1.484,32.996700329967005,0.0,13.406
-3.621,1.484,32.996700329967005,0.0,13.352
-3.62,1.484,32.996700329967005,0.0,13.254
-3.052,1.484,32.996700329967005,0.0,13.176
-3.685,1.482,32.996700329967005,0.0,13.122
-3.49,1.483,32.996700329967005,0.0,13.096
-3.288,1.482,32.996700329967005,0.0,13.074
-2.993,1.482,32.996700329967005,0.0,13.084
-3.387,1.482,32.996700329967005,0.0,13.094
-3.51,1.482,32.996700329967005,0.0,13.078
-3.473,1.482,32.996700329967005,0.0,12.98
-3.47,1.482,32.996700329967005,0.0,12.906
-3.453,1.482,32.996700329967005,0.0,12.876
-3.406,1.482,32.996700329967005,0.0,12.804
-3.383,1.482,32.996700329967005,0.0,12.736
-2.766,1.482,32.996700329967005,0.0,12.66
-3.519,1.482,32.996700329967005,0.0,12.578
-3.266,1.482,32.996700329967005,0.0,12.512
-3.089,1.482,32.996700329967005,0.0,12.468
-2.75,1.482,32.996700329967005,0.0,12.416
-3.012,1.48,32.996700329967005,0.0,12.376
-3.235,1.482,32.996700329967005,0.0,12.336
-3.21,1.482,32.996700329967005,0.0,12.29
-3.211,1.479,32.996700329967005,0.0,12.19
-3.207,1.479,32.996700329967005,0.0,12.12
-3.19,1.479,32.996700329967005,0.0,12.062
-3.175,1.479,32.996700329967005,0.0,12.016
-3.143,1.479,32.996700329967005,0.0,11.988
-2.587,1.479,32.996700329967005,0.0,11.972
-3.325,1.477,32.996700329967005,0.0,11.968
-3.1,1.477,32.996700329967005,0.0,11.988
-2.974,1.477,32.996700329967005,0.0,12.032
-2.671,1.477,32.996700329967005,0.0,12.092
-2.732,1.477,32.996700329967005,0.0,12.17
-3.091,1.477,32.996700329967005,0.0,12.268
-3.095,1.477,32.996700329967005,0.0,12.354
-3.103,1.477,32.996700329967005,0.0,12.412
-3.107,1.477,32.996700329967005,0.0,12.484
-3.093,1.477,32.996700329967005,0.0,12.556
-3.051,1.477,32.996700329967005,0.0,12.636
-2.983,1.474,32.996700329967005,0.0,12.72
-2.699,1.475,32.996700329967005,0.0,12.812
-2.978,1.475,32.996700329967005,0.0,12.902
-2.844,1.475,32.996700329967005,0.0,12.974
-2.572,1.474,32.996700329967005,0.0,13.048
-2.411,1.474,32.996700329967005,0.0,13.098
-2.801,1.472,32.996700329967005,0.0,13.134
-2.834,1.472,32.996700329967005,0.0,13.16
-2.824,1.472,32.996700329967005,0.0,13.116
-2.81,1.472,32.996700329967005,0.0,13.028
-2.777,1.472,32.996700329967005,0.0,12.916
-2.721,1.472,32.996700329967005,0.0,12.814
-2.127,1.472,32.996700329967005,0.0,12.73
-2.837,1.472,32.996700329967005,0.0,12.658
-2.588,1.472,32.996700329967005,0.0,12.584
-2.439,1.472,32.996700329967005,0.0,12.524
-2.108,1.472,32.996700329967005,0.0,12.468
-2.223,1.469,32.996700329967005,0.0,12.426
-2.552,1.469,32.996700329967005,50.01,12.384
-2.529,1.469,32.996700329967005,50.01,12.342
-2.524,1.469,32.996700329967005,50.01,12.262
-2.515,1.469,32.996700329967005,49.99,12.242
-2.486,1.469,32.996700329967005,49.99,12.276
-2.451,1.468,32.996700329967005,50.01,12.298
-2.34,1.468,32.996700329967005,49.77,12.296
-2.104,1.467,32.996700329967005,50.29,12.29
-2.351,1.467,32.996700329967005,49.76,12.252
-2.221,1.467,32.996700329967005,50.3,12.216
-1.947,1.467,32.996700329967005,49.96,12.254
-1.816,1.467,32.996700329967005,49.81,12.326
-2.203,1.467,32.996700329967005,50.8,12.344
-2.221,1.467,32.996700329967005,48.61,12.312
-2.22,1.465,32.996700329967005,52.31,12.206
-2.217,1.464,32.996700329967005,46.91,12.144
-2.199,1.464,32.996700329967005,54.0,12.056
-2.179,1.464,32.996700329967005,45.38,11.97
-1.583,1.464,32.996700329967005,54.74,11.972
-2.377,1.464,32.996700329967005,45.81,11.972
-2.079,1.464,32.996700329967005,54.39,11.988
-1.936,1.464,32.996700329967005,132.74,11.992
-1.623,1.464,32.996700329967005,49.88,12.01
-1.769,1.462,32.996700329967005,-4.58,12.016
-2.023,1.462,32.996700329967005,19.6,12.004
-1.993,1.462,32.996700329967005,3.96,12.004
-1.991,1.462,32.996700329967005,14.33,11.94
-2.005,1.462,32.996700329967005,8.17,11.882
-2.008,1.462,32.996700329967005,11.38,11.856
-2.022,1.462,32.996700329967005,10.37,11.836
-1.479,1.462,32.996700329967005,9.97,11.84
-2.228,1.462,32.996700329967005,11.2,11.946
-1.985,1.462,32.996700329967005,9.73,12.1
-1.804,1.462,32.996700329967005,11.15,12.258
-1.461,1.462,32.996700329967005,10.02,12.468
-1.725,1.46,32.996700329967005,10.81,12.714
-1.897,1.46,32.996700329967005,10.34,12.978
-1.882,1.459,32.996700329967005,10.51,13.13
-1.884,1.459,32.996700329967005,10.6,13.132
-1.871,1.459,32.996700329967005,10.61,13.022
-1.832,1.459,32.996700329967005,10.62,12.934
-1.481,1.459,32.996700329967005,10.63,12.88
-1.725,1.459,32.996700329967005,10.62,12.802
-1.766,1.459,32.996700329967005,10.62,12.74
-1.622,1.459,32.996700329967005,10.61,12.698
-1.324,1.459,32.996700329967005,10.6,12.68
-1.351,1.459,32.996700329967005,10.6,12.666
-1.684,1.459,32.996700329967005,10.6,12.656
-1.669,1.459,32.996700329967005,10.62,12.704
-1.66,1.458,32.996700329967005,10.63,12.792
-1.647,1.457,32.996700329967005,10.65,12.67
-1.622,1.457,32.996700329967005,10.65,12.624
-1.577,1.457,32.996700329967005,10.66,12.506
-1.597,1.457,32.996700329967005,10.66,12.28
-1.105,1.455,32.996700329967005,10.67,12.12
-1.571,1.454,32.996700329967005,10.67,12.028
-1.43,1.455,32.996700329967005,10.67,11.938
-1.223,1.454,32.996700329967005,10.67,11.886
-0.967,1.454,32.996700329967005,10.68,11.856
-1.331,1.454,32.996700329967005,10.68,11.836
-1.428,1.454,32.996700329967005,10.7,11.828
-1.429,1.454,32.996700329967005,10.7,11.8
-1.437,1.454,32.996700329967005,10.7,11.76
-1.43,1.454,32.996700329967005,10.7,11.726
-1.42,1.454,32.996700329967005,10.71,11.708
-1.412,1.454,32.996700329967005,10.71,11.7
-1.382,1.454,32.996700329967005,10.72,11.694
-1.24,1.454,32.996700329967005,10.72,11.698
-1.177,1.454,32.996700329967005,10.72,11.706
-1.402,1.454,32.996700329967005,10.72,11.714
-1.312,1.454,32.996700329967005,10.72,11.736
-1.063,1.454,32.996700329967005,10.72,11.796
-0.942,1.453,32.996700329967005,10.73,11.934
-1.347,1.452,32.996700329967005,10.73,12.102
-1.389,1.452,32.996700329967005,10.74,12.242
-1.408,1.452,32.996700329967005,10.74,12.322
-1.423,1.452,32.996700329967005,10.74,12.422
-1.407,1.452,32.996700329967005,10.74,12.544
-1.376,1.452,32.996700329967005,10.74,12.634
-1.336,1.452,32.996700329967005,10.74,12.718
-0.734,1.452,32.996700329967005,10.74,12.804
-1.437,1.452,32.996700329967005,10.76,12.834
-1.17,1.452,32.996700329967005,10.76,12.792
-0.995,1.452,32.996700329967005,10.76,12.73
-0.705,1.452,32.996700329967005,10.77,12.652
-0.966,1.452,32.996700329967005,10.76,12.59
-1.153,1.449,32.996700329967005,10.77,12.532
-1.152,1.449,32.996700329967005,10.77,12.476
-1.155,1.449,32.996700329967005,10.77,12.374
-1.144,1.449,32.996700329967005,10.77,12.294
-1.136,1.449,32.996700329967005,10.79,12.274
-1.119,1.449,32.996700329967005,11.01,12.266
-1.093,1.449,32.996700329967005,11.07,12.252
-0.479,1.449,32.996700329967005,11.16,12.244
-1.263,1.449,32.996700329967005,11.26,12.214
-0.997,1.449,32.996700329967005,11.06,12.192
-0.845,1.449,32.996700329967005,11.0,12.174
-0.534,1.449,32.996700329967005,11.01,12.148
-0.718,1.449,32.996700329967005,11.01,12.13
-1.0,1.449,32.996700329967005,11.0,12.148
-1.008,1.448,32.996700329967005,10.89,12.138
-1.008,1.447,32.996700329967005,10.98,12.084
-1.007,1.447,32.996700329967005,10.87,12.03
-0.991,1.447,32.996700329967005,10.62,12.0
-0.976,1.447,32.996700329967005,10.63,11.992
-0.522,1.447,32.996700329967005,10.54,11.97
-0.352,1.447,32.996700329967005,10.55,11.942
-0.983,1.447,32.996700329967005,10.55,11.96
-0.881,1.447,32.996700329967005,10.78,11.996
-0.765,1.447,32.996700329967005,10.98,12.002
-0.483,1.445,32.996700329967005,11.12,11.982
-0.469,1.447,32.996700329967005,11.49,11.982
-0.834,1.447,32.996700329967005,11.7,11.97
-0.845,1.447,32.996700329967005,11.83,11.946
-0.849,1.447,32.996700329967005,11.4,11.904
-0.867,1.447,32.996700329967005,11.11,11.876
-0.858,1.444,32.996700329967005,11.0,11.856
-0.848,1.447,32.996700329967005,10.81,11.842
-0.813,1.447,32.996700329967005,10.65,11.824
-0.448,1.444,32.996700329967005,10.77,11.816
-0.767,1.444,32.996700329967005,11.39,11.828
-0.75,1.444,32.996700329967005,11.87,11.82
-0.652,1.444,32.996700329967005,11.48,11.796
-0.402,1.444,32.996700329967005,10.76,11.772
-0.385,1.444,32.996700329967005,10.95,11.79
-0.783,1.444,32.996700329967005,11.06,11.814
-0.824,1.444,32.996700329967005,10.72,11.836
-0.856,1.442,32.996700329967005,10.87,11.868
-0.877,1.444,32.996700329967005,10.9,11.936
-0.887,1.443,32.996700329967005,10.63,12.024
-0.89,1.442,32.996700329967005,10.82,12.13
-0.884,1.442,32.996700329967005,10.79,12.268
-0.329,1.442,32.996700329967005,10.66,12.414
-1.016,1.442,32.996700329967005,10.81,12.564
-0.78,1.442,32.996700329967005,10.73,12.718
-0.596,1.442,32.996700329967005,10.78,12.866
-0.282,1.442,32.996700329967005,10.81,12.992
-0.612,1.442,32.996700329967005,10.73,13.104
-0.795,1.442,32.996700329967005,10.74,13.196
-0.797,1.442,32.996700329967005,10.74,13.232
-0.798,1.442,32.996700329967005,10.67,13.246
-0.784,1.442,32.996700329967005,10.59,13.238
-0.738,1.442,32.996700329967005,10.63,13.2
-0.26,1.442,32.996700329967005,10.67,13.128
-0.756,1.442,32.996700329967005,10.72,13.034
-0.619,1.442,32.996700329967005,10.73,12.92
-0.477,1.442,32.996700329967005,10.73,12.802
-0.178,1.439,32.996700329967005,10.9,12.678
-0.257,1.439,32.996700329967005,11.01,12.57
-0.574,1.439,32.996700329967005,10.94,12.484
-0.572,1.439,32.996700329967005,10.87,12.382
-0.581,1.439,32.996700329967005,10.83,12.242
-0.584,1.439,32.996700329967005,10.81,12.164
-0.576,1.439,32.996700329967005,10.84,12.106
-0.547,1.439,32.996700329967005,10.88,12.078
-0.382,1.438,32.996700329967005,10.9,12.066
-0.288,1.439,32.996700329967005,10.95,12.06
-0.507,1.439,32.996700329967005,11.1,12.05
-0.398,1.438,32.996700329967005,11.17,12.038
-0.12,1.437,32.996700329967005,11.15,12.026
-0.053,1.437,32.996700329967005,11.2,12.038
-0.479,1.437,32.996700329967005,11.22,12.046
-0.5,1.437,32.996700329967005,11.21,12.05
-0.499,1.437,32.996700329967005,11.21,12.014
-0.511,1.437,32.996700329967005,11.21,11.984
-0.505,1.437,32.996700329967005,11.22,11.962
-0.496,1.437,32.996700329967005,11.22,11.946
-0.483,1.437,32.996700329967005,11.23,11.932
-0.492,1.437,32.996700329967005,11.24,11.914
-0.014,1.435,32.996700329967005,11.24,11.898
-0.472,1.435,24.997500249975,11.26,11.88
-0.369,1.434,24.997500249975,11.26,11.874
-0.17,1.434,24.997500249975,11.26,11.87
0.046,1.434,24.997500249975,11.27,11.87
-0.394,1.434,24.997500249975,11.27,11.886
-0.503,1.434,24.997500249975,11.28,11.928
-0.523,1.434,24.997500249975,11.28,11.964
-0.555,1.434,24.997500249975,11.28,12.012
-0.574,1.434,24.997500249975,11.29,12.11
-0.584,1.434,24.997500249975,11.29,12.222
-0.598,1.434,24.997500249975,11.29,12.346
-0.578,1.434,24.997500249975,11.29,12.47
0.014,1.434,24.997500249975,11.29,12.604
-0.77,1.434,24.997500249975,11.28,12.746
-0.499,1.434,34.996500349965004,11.27,12.882
-0.346,1.433,34.996500349965004,11.27,13.012
-0.024,1.432,34.996500349965004,11.29,13.124
-0.244,1.432,34.996500349965004,11.28,13.222
-0.511,1.432,34.996500349965004,11.24,13.312
-0.516,1.432,34.996500349965004,11.27,13.356
-0.525,1.432,34.996500349965004,11.26,13.386
-0.528,1.432,34.996500349965004,11.17,13.398
-0.508,1.432,34.996500349965004,11.15,13.378
-0.482,1.432,34.996500349965004,11.18,13.308
0.161,1.432,34.996500349965004,11.17,13.212
-0.647,1.432,34.996500349965004,11.16,13.138
-0.368,1.432,34.996500349965004,11.16,13.084
-0.208,1.432,34.996500349965004,11.16,13.016
0.141,1.432,34.996500349965004,11.16,12.934
-0.085,1.432,34.996500349965004,11.17,12.836
-0.354,1.43,34.996500349965004,11.16,12.75
-0.328,1.432,34.996500349965004,11.15,12.666
-0.325,1.43,34.996500349965004,11.15,12.546
-0.326,1.429,34.996500349965004,11.11,12.412
-0.317,1.429,34.996500349965004,11.07,12.294
-0.302,1.429,34.996500349965004,11.06,12.214
-0.283,1.429,34.996500349965004,11.05,12.15
0.333,1.429,34.996500349965004,11.05,12.094
-0.455,1.429,34.996500349965004,11.05,12.044
-0.203,1.429,34.996500349965004,11.07,11.996
-0.056,1.429,34.996500349965004,11.07,11.954
0.273,1.429,34.996500349965004,11.05,11.918
0.019,1.429,34.996500349965004,11.06,11.894
-0.244,1.429,34.996500349965004,11.06,11.888
-0.24,1.428,34.996500349965004,11.06,11.874
-0.254,1.427,34.996500349965004,11.07,11.828
-0.269,1.427,34.996500349965004,11.06,11.794
-0.273,1.427,34.996500349965004,11.06,11.776
-0.281,1.427,34.996500349965004,11.06,11.756
-0.302,1.427,34.996500349965004,11.06,11.746
-0.299,1.427,34.996500349965004,11.05,11.744
0.032,1.427,34.996500349965004,11.05,11.766
-0.269,1.427,34.996500349965004,11.05,11.788
-0.294,1.427,34.996500349965004,11.05,11.852
-0.197,1.427,34.996500349965004,11.05,11.952
0.072,1.427,34.996500349965004,11.05,12.056
0.106,1.427,34.996500349965004,11.05,12.162
-0.335,1.425,34.996500349965004,11.05,12.262
-0.379,1.424,34.996500349965004,11.05,12.36
-0.409,1.424,34.996500349965004,11.05,12.436
-0.439,1.425,34.996500349965004,11.05,12.556
-0.471,1.424,34.996500349965004,11.05,12.694
-0.474,1.424,217.97820217978202,11.05,12.826
-0.46,1.424,217.97820217978202,11.05,12.944
-0.276,1.424,217.97820217978202,11.05,13.064
-0.268,1.424,217.97820217978202,11.05,13.208
-0.438,1.424,217.97820217978202,11.05,13.482
-0.319,1.424,217.97820217978202,11.02,13.49
-0.039,1.424,217.97820217978202,11.01,13.64
0.031,1.424,217.97820217978202,10.98,13.798
-0.43,1.424,217.97820217978202,10.96,13.954
-0.486,1.423,217.97820217978202,10.89,14.072
-0.511,1.424,217.97820217978202,10.85,14.172
-0.535,1.422,217.97820217978202,11.23,14.29
-0.517,1.422,217.97820217978202,11.61,14.418
-0.538,1.422,217.97820217978202,11.61,14.536
-0.03,1.422,217.97820217978202,11.49,14.652
-0.527,1.422,217.97820217978202,11.55,14.754
-0.354,1.422,217.97820217978202,11.31,14.84
-0.087,1.422,217.97820217978202,11.54,14.898
0.131,1.422,217.97820217978202,11.32,14.936
-0.345,1.422,217.97820217978202,11.51,14.936
-0.371,1.422,217.97820217978202,11.48,14.868
-0.332,1.422,217.97820217978202,11.94,14.746
-0.321,1.422,217.97820217978202,16.54,14.568
-0.295,1.422,217.97820217978202,25.91,14.326
-0.248,1.422,217.97820217978202,43.82,14.026
-0.221,1.422,217.97820217978202,54.79,13.732
0.433,1.422,217.97820217978202,55.05,13.476
-0.339,1.422,217.97820217978202,45.31,13.25
-0.091,1.422,217.97820217978202,32.48,13.052
0.078,1.422,217.97820217978202,41.94,12.896
0.43,1.422,217.97820217978202,55.63,12.762
0.112,1.422,217.97820217978202,59.66,12.656
-0.129,1.422,217.97820217978202,59.53,12.574
-0.125,1.422,217.97820217978202,55.6,12.498
-0.153,1.422,217.97820217978202,44.26,12.406
-0.17,1.422,217.97820217978202,29.31,12.332
-0.171,1.422,217.97820217978202,22.83,12.276
-0.147,1.421,217.97820217978202,19.29,12.244
-0.145,1.42,217.97820217978202,16.93,12.29
0.468,1.42,217.97820217978202,16.27,12.33
-0.299,1.42,217.97820217978202,15.75,12.346
-0.073,1.42,217.97820217978202,15.86,12.336
0.086,1.42,217.97820217978202,15.66,12.328
0.428,1.42,217.97820217978202,15.62,12.332
0.135,1.42,217.97820217978202,15.41,12.342
-0.109,1.42,217.97820217978202,15.19,12.372
-0.106,1.418,217.97820217978202,15.05,12.36
-0.121,1.417,217.97820217978202,14.93,12.266
-0.123,1.417,217.97820217978202,14.88,12.182
-0.12,1.417,217.97820217978202,14.89,12.128
-0.109,1.417,217.97820217978202,14.88,12.078
-0.103,1.417,217.97820217978202,14.91,12.036
0.453,1.417,217.97820217978202,14.89,11.97
-0.204,1.417,71.99280071992801,14.91,11.97
-0.025,1.417,71.99280071992801,15.0,11.944
0.134,1.417,71.99280071992801,15.02,11.924
0.444,1.417,71.99280071992801,15.05,11.906
0.077,1.417,71.99280071992801,14.92,11.892
-0.133,1.417,71.99280071992801,14.65,11.882
-0.163,1.417,71.99280071992801,14.43,11.872
-0.223,1.417,71.99280071992801,14.24,11.84
-0.269,1.417,71.99280071992801,14.11,11.83
-0.298,1.417,71.99280071992801,14.08,11.884
-0.303,1.415,71.99280071992801,14.17,12.002
-0.268,1.415,71.99280071992801,14.08,12.228
0.337,1.415,71.99280071992801,13.91,12.534
-0.385,1.415,71.99280071992801,13.89,12.834
-0.128,1.415,71.99280071992801,13.82,13.04
0.027,1.415,71.99280071992801,13.83,13.084
0.32,1.415,71.99280071992801,13.83,12.946
0.055,1.415,71.99280071992801,13.77,12.862
-0.161,1.415,71.99280071992801,14.06,12.83
-0.179,1.415,71.99280071992801,14.26,12.784
-0.203,1.415,71.99280071992801,14.02,12.742
-0.21,1.415,103.98960103989602,13.99,12.722
-0.202,1.415,103.98960103989602,13.97,12.714
-0.201,1.415,103.98960103989602,13.86,12.718
-0.177,1.413,103.98960103989602,14.03,12.73
-0.122,1.412,103.98960103989602,14.09,12.734
0.268,1.412,103.98960103989602,14.02,12.728
-0.132,1.412,103.98960103989602,14.16,12.704
-0.032,1.412,103.98960103989602,14.1,12.698
0.224,1.412,103.98960103989602,13.84,12.704
0.373,1.412,103.98960103989602,14.05,12.694
-0.079,1.412,103.98960103989602,14.08,12.652
-0.132,1.412,103.98960103989602,14.24,12.512
-0.14,1.412,103.98960103989602,14.44,12.446
-0.155,1.412,103.98960103989602,14.21,12.426
-0.161,1.412,103.98960103989602,13.98,12.404
-0.165,1.411,103.98960103989602,13.58,12.382
-0.165,1.41,103.98960103989602,13.44,12.376
-0.164,1.41,103.98960103989602,13.36,12.358
-0.164,1.41,103.98960103989602,13.32,12.342
0.354,1.41,103.98960103989602,13.38,12.314
-0.299,1.41,103.98960103989602,13.33,12.274
-0.138,1.41,103.98960103989602,13.36,12.208
0.02,1.41,103.98960103989602,13.34,12.188
0.339,1.41,103.98960103989602,13.33,12.268
-0.002,1.41,103.98960103989602,13.31,12.43
-0.214,1.41,103.98960103989602,13.28,12.614
-0.203,1.41,103.98960103989602,13.28,12.786
-0.223,1.41,103.98960103989602,13.31,12.936
-0.253,1.41,103.98960103989602,13.34,13.028
-0.251,1.408,103.98960103989602,13.32,12.984
-0.233,1.41,103.98960103989602,13.3,12.906
-0.201,1.407,103.98960103989602,13.3,12.812
0.178,1.407,103.98960103989602,13.3,12.834
-0.125,1.407,103.98960103989602,13.31,12.968
-0.122,1.407,103.98960103989602,13.3,12.99
-0.005,1.407,103.98960103989602,13.3,12.944
0.275,1.407,103.98960103989602,13.3,12.916
0.287,1.407,103.98960103989602,13.3,12.836
-0.113,1.407,103.98960103989602,13.3,12.734
-0.138,1.407,103.98960103989602,13.3,12.68
-0.153,1.407,103.98960103989602,13.3,12.656
-0.17,1.406,103.98960103989602,13.3,12.614
-0.171,1.406,103.98960103989602,13.3,12.552
-0.172,1.405,103.98960103989602,13.3,12.518
-0.175,1.405,103.98960103989602,13.3,12.518
-0.161,1.405,103.98960103989602,13.3,12.522
-0.121,1.405,103.98960103989602,13.3,12.516
0.264,1.405,103.98960103989602,13.3,12.518
-0.126,1.405,103.98960103989602,13.3,12.516
-0.031,1.405,103.98960103989602,13.3,12.502
0.202,1.405,103.98960103989602,13.3,12.482
0.383,1.405,103.98960103989602,13.3,12.48
-0.061,1.405,103.98960103989602,13.3,12.452
-0.137,1.402,64.993500649935,13.3,12.424
-0.151,1.402,64.993500649935,13.3,12.372
-0.175,1.402,64.993500649935,13.3,12.34
-0.176,1.402,64.993500649935,13.3,12.322
-0.17,1.402,64.993500649935,13.3,12.298
-0.167,1.402,64.993500649935,13.3,12.274
-0.157,1.402,64.993500649935,13.3,12.266
-0.135,1.402,64.993500649935,13.3,12.26
0.396,1.402,64.993500649935,13.3,12.24
-0.186,1.402,64.993500649935,13.3,12.222
-0.024,1.402,64.993500649935,13.3,12.2
0.146,1.401,64.993500649935,13.3,12.178
0.433,1.4,64.993500649935,13.3,12.15
0.103,1.4,64.993500649935,13.3,12.122
-0.08,1.4,64.993500649935,13.3,12.11
-0.106,1.4,63.993600639936005,13.3,12.08
-0.142,1.4,63.993600639936005,13.3,12.034
-0.174,1.4,63.993600639936005,13.3,11.988
-0.216,1.4,63.993600639936005,13.3,11.936
-0.255,1.4,63.993600639936005,13.3,11.9
-0.277,1.4,63.993600639936005,13.3,11.884
-0.273,1.398,63.993600639936005,13.3,11.904
0.176,1.4,63.993600639936005,13.3,12.112
-0.251,1.4,63.993600639936005,13.3,12.508
-0.116,1.4,63.993600639936005,13.3,12.884
0.086,1.397,66.993300669933,13.3,13.108
0.317,1.397,66.993300669933,13.3,13.11
-0.085,1.397,66.993300669933,13.3,13.012
-0.192,1.397,66.993300669933,13.3,12.938
-0.208,1.397,66.993300669933,13.3,12.874
-0.226,1.397,66.993300669933,13.3,12.77
-0.228,1.397,66.993300669933,13.3,12.622
-0.222,1.397,66.993300669933,13.3,12.606
-0.216,1.396,66.993300669933,13.3,12.594
-0.205,1.395,66.993300669933,13.3,12.602
0.414,1.395,66.993300669933,13.3,12.62
-0.398,1.395,66.993300669933,13.3,12.624
-0.147,1.395,66.993300669933,13.3,12.58
-0.003,1.395,67.993200679932,13.3,12.594
0.324,1.395,67.993200679932,13.3,12.618
0.19,1.395,67.993200679932,13.3,12.624
-0.156,1.395,67.993200679932,13.3,12.636
-0.158,1.395,67.993200679932,13.3,12.638
-0.175,1.395,67.993200679932,13.3,12.57
-0.189,1.395,67.993200679932,13.3,12.53
-0.183,1.395,67.993200679932,13.3,12.502
-0.177,1.392,67.993200679932,13.3,12.472
-0.164,1.392,67.993200679932,13.3,12.47
-0.158,1.392,67.993200679932,13.3,12.47
0.369,1.392,67.993200679932,13.3,12.47
-0.171,1.392,67.993200679932,13.3,12.476
-0.046,1.392,67.993200679932,13.3,12.486
0.143,1.392,67.993200679932,13.3,12.478
0.429,1.392,67.993200679932,13.3,12.458
0.038,1.392,67.993200679932,13.3,12.436
-0.118,1.392,67.993200679932,13.3,12.456
-0.128,1.392,67.993200679932,13.3,12.462
-0.147,1.392,67.993200679932,13.3,12.444
-0.151,1.392,67.993200679932,13.3,12.43
-0.147,1.392,67.993200679932,13.3,12.414
-0.134,1.391,67.993200679932,13.3,12.392
-0.112,1.391,67.993200679932,13.3,12.382
-0.087,1.39,67.993200679932,13.3,12.366
0.469,1.392,67.993200679932,13.3,12.356
-0.238,1.392,67.993200679932,13.3,12.33
-0.037,1.392,67.993200679932,13.3,12.222
0.08,1.392,67.993200679932,13.3,12.116
0.361,1.392,67.993200679932,13.3,12.092
0.078,1.392,67.993200679932,13.3,12.084
-0.201,1.392,64.993500649935,13.31,12.09
-0.231,1.392,64.993500649935,13.31,12.148
-0.254,1.392,64.993500649935,13.3,12.34
-0.249,1.392,64.993500649935,13.3,12.592
-0.232,1.392,64.993500649935,13.31,12.838
-0.213,1.391,64.993500649935,13.31,13.048
-0.176,1.392,64.993500649935,13.31,13.164
0.435,1.391,64.993500649935,13.31,13.126
-0.361,1.391,64.993500649935,13.31,13.02
-0.081,1.39,64.993500649935,13.31,12.898
0.058,1.39,69.99300069993001,13.31,12.81
0.353,1.39,69.99300069993001,13.31,12.728
0.164,1.39,69.99300069993001,13.31,12.648
-0.107,1.39,69.99300069993001,13.31,12.66
-0.127,1.39,69.99300069993001,13.31,12.646
-0.146,1.39,69.99300069993001,13.31,12.602
-0.154,1.39,69.99300069993001,13.31,12.564
-0.149,1.39,69.99300069993001,13.31,12.534
-0.143,1.39,69.99300069993001,13.31,12.508
-0.136,1.39,69.99300069993001,13.31,12.512
-0.106,1.39,69.99300069993001,13.31,12.508
0.482,1.388,69.99300069993001,13.31,12.496
-0.256,1.388,69.99300069993001,13.31,12.474
-0.046,1.387,69.99300069993001,13.31,12.45
0.108,1.387,69.99300069993001,13.31,12.444
0.436,1.387,69.99300069993001,13.31,12.474
0.176,1.387,69.99300069993001,13.31,12.5
-0.077,1.387,66.993300669933,13.31,12.582
-0.075,1.387,66.993300669933,13.31,12.602
-0.095,1.386,66.993300669933,13.31,12.492
-0.09,1.385,66.993300669933,13.32,12.386
-0.089,1.385,66.993300669933,13.32,12.292
-0.084,1.385,66.993300669933,13.32,12.22
-0.081,1.385,66.993300669933,13.31,12.216
-0.064,1.385,66.993300669933,13.31,12.202
0.351,1.385,66.993300669933,13.31,12.152
-0.052,1.385,66.993300669933,13.32,12.128
-0.013,1.385,66.993300669933,13.32,12.12
0.097,1.385,66.993300669933,13.31,12.118
0.361,1.382,66.993300669933,13.31,12.124
0.409,1.382,66.993300669933,13.31,12.116
-0.004,1.382,66.993300669933,13.32,12.1
-0.041,1.382,63.993600639936005,13.31,12.074
-0.057,1.382,63.993600639936005,13.31,12.016
-0.07,1.382,63.993600639936005,13.32,11.994
-0.076,1.382,63.993600639936005,13.32,11.982
-0.078,1.382,63.993600639936005,13.32,11.974
-0.08,1.38,63.993600639936005,13.32,11.974
-0.064,1.38,63.993600639936005,13.31,11.984
0.546,1.38,63.993600639936005,13.32,12.004
-0.257,1.38,63.993600639936005,13.32,12.008
0.01,1.378,63.993600639936005,13.32,11.998
0.128,1.377,63.993600639936005,13.32,11.994
0.419,1.377,63.993600639936005,13.32,12.02
0.319,1.377,63.993600639936005,13.32,12.028
-0.021,1.377,63.993600639936005,13.32,12.01
-0.035,1.377,66.993300669933,13.32,11.99
-0.064,1.377,66.993300669933,13.32,11.95
-0.079,1.375,66.993300669933,13.32,11.914
-0.075,1.375,66.993300669933,13.32,11.882
-0.074,1.375,66.993300669933,13.32,11.868
-0.057,1.375,66.993300669933,13.32,11.912
-0.033,1.375,66.993300669933,13.32,11.986
0.331,1.375,66.993300669933,13.32,11.946
-0.035,1.375,66.993300669933,13.32,11.888
0.055,1.375,66.993300669933,13.32,11.872
0.27,1.372,66.993300669933,13.32,11.874
0.467,1.372,66.993300669933,13.31,11.864
0.024,1.372,66.993300669933,13.32,11.834
-0.057,1.372,67.993200679932,13.32,11.814
-0.077,1.372,67.993200679932,13.32,11.774
-0.108,1.372,67.993200679932,13.32,11.728
-0.112,1.372,67.993200679932,13.32,11.7
-0.113,1.372,67.993200679932,13.32,11.68
-0.106,1.372,67.993200679932,13.32,11.68
-0.105,1.372,67.993200679932,13.32,11.712
0.245,1.372,67.993200679932,13.32,11.78
-0.143,1.372,67.993200679932,13.32,11.78
-0.06,1.371,67.993200679932,13.32,11.82
0.157,1.37,70.992900709929,13.32,11.894
0.353,1.37,70.992900709929,13.32,11.974
-0.112,1.37,70.992900709929,13.32,12.074
-0.199,1.37,70.992900709929,13.32,12.184
-0.212,1.37,70.992900709929,13.32,12.24
-0.241,1.37,70.992900709929,13.32,12.282
-0.259,1.366,70.992900709929,13.32,12.348
-0.095,1.365,79.99200079992,13.32,12.27
-0.098,1.365,79.99200079992,13.32,12.198
-0.106,1.365,79.99200079992,13.32,12.126
-0.121,1.367,79.99200079992,13.32,12.086
-0.115,1.365,79.99200079992,13.32,12.082
-0.093,1.365,79.99200079992,13.32,12.098
-0.087,1.365,79.99200079992,13.32,12.166
0.45,1.365,79.99200079992,13.32,12.204
-0.178,1.365,79.99200079992,13.32,12.214
0.001,1.365,79.99200079992,13.32,12.212
0.175,1.365,79.99200079992,13.32,12.192
0.488,1.365,79.99200079992,13.32,12.2
0.125,1.365,79.99200079992,13.32,12.238
-0.062,1.365,72.99270072992701,13.32,12.268
-0.059,1.365,72.99270072992701,13.32,12.258
-0.079,1.365,72.99270072992701,13.32,12.224
-0.089,1.365,72.99270072992701,13.32,12.168
-0.086,1.365,72.99270072992701,13.32,12.116
-0.071,1.365,72.99270072992701,13.32,12.088
-0.065,1.365,72.99270072992701,13.32,12.068
-0.042,1.365,72.99270072992701,13.32,12.064
0.507,1.365,72.99270072992701,13.32,12.054
-0.184,1.365,72.99270072992701,13.32,12.002
0.011,1.365,72.99270072992701,13.32,11.936
0.119,1.365,72.99270072992701,13.32,11.916
0.401,1.365,72.99270072992701,13.32,11.914
0.362,1.365,72.99270072992701,13.32,11.902
-0.033,1.365,72.99270072992701,13.32,11.872
-0.068,1.365,63.993600639936005,13.32,11.83
-0.102,1.365,63.993600639936005,13.32,11.742
-0.131,1.365,63.993600639936005,13.32,11.696
-0.147,1.365,63.993600639936005,13.32,11.71
-0.159,1.365,63.993600639936005,13.32,11.726
-0.175,1.365,63.993600639936005,13.32,11.746
-0.193,1.365,63.993600639936005,13.32,11.784
-0.192,1.365,63.993600639936005,13.32,11.862
0.336,1.365,63.993600639936005,13.32,11.97
-0.353,1.365,63.993600639936005,13.32,12.08
-0.144,1.365,63.993600639936005,13.32,12.22
0.007,1.365,62.99370062993701,13.32,12.342
0.321,1.365,62.99370062993701,13.32,12.448
0.036,1.365,62.99370062993701,13.32,12.55
-0.196,1.365,62.99370062993701,13.32,12.668
-0.19,1.365,62.99370062993701,13.32,12.76
-0.2,1.365,62.99370062993701,13.32,12.862
-0.206,1.365,62.99370062993701,13.32,12.924
-0.208,1.365,62.99370062993701,13.32,12.934
-0.189,1.365,62.99370062993701,13.32,12.902
-0.182,1.365,62.99370062993701,13.32,12.85
0.379,1.365,62.99370062993701,13.32,12.786
-0.287,1.365,62.99370062993701,13.32,12.718
-0.086,1.365,62.99370062993701,13.33,12.656
0.091,1.365,70.992900709929,13.33,12.598
0.433,1.365,70.992900709929,13.33,12.568
0.08,1.365,70.992900709929,13.33,12.54
-0.112,1.365,70.992900709929,13.33,12.522
-0.088,1.365,70.992900709929,13.33,12.488
-0.094,1.365,70.992900709929,13.33,12.414
-0.096,1.365,70.992900709929,13.32,12.284
-0.094,1.363,70.992900709929,13.32,12.152
-0.091,1.363,70.992900709929,13.33,12.04
-0.067,1.365,70.992900709929,13.33,11.964
0.183,1.362,70.992900709929,13.33,11.908
0.078,1.365,70.992900709929,13.33,11.872
-0.029,1.365,70.992900709929,13.33,11.872
0.072,1.363,70.992900709929,13.33,11.874
0.338,1.363,70.992900709929,13.32,11.876
0.425,1.362,70.992900709929,13.33,11.876
-0.019,1.362,70.992900709929,13.33,11.876
-0.058,1.362,67.993200679932,13.33,11.888
-0.069,1.362,67.993200679932,13.33,11.864
-0.087,1.362,67.993200679932,13.33,11.83
-0.09,1.362,67.993200679932,13.33,11.816
-0.091,1.362,67.993200679932,13.33,11.806
-0.096,1.362,67.993200679932,13.33,11.802
-0.086,1.362,67.993200679932,13.33,11.802
0.122,1.362,67.993200679932,13.33,11.812
0.057,1.362,67.993200679932,13.33,11.816
-0.1,1.362,67.993200679932,13.33,11.824
-0.018,1.362,65.99340065993401,13.33,11.836
0.227,1.362,65.99340065993401,13.33,11.864
0.334,1.362,65.99340065993401,13.33,11.918
-0.128,1.36,65.99340065993401,13.33,11.994
-0.191,1.36,65.99340065993401,13.33,12.106
-0.217,1.36,65.99340065993401,13.33,12.194
-0.246,1.36,65.99340065993401,13.33,12.278
-0.261,1.36,65.99340065993401,13.33,12.352
-0.254,1.36,65.99340065993401,13.33,12.44
-0.257,1.36,65.99340065993401,13.33,12.542
0.324,1.36,65.99340065993401,13.33,12.65
-0.445,1.36,65.99340065993401,13.33,12.764
-0.179,1.36,65.99340065993401,13.33,12.858
-0.015,1.36,72.99270072992701,13.33,12.932
0.322,1.36,72.99270072992701,13.33,13.01
0.057,1.36,72.99270072992701,13.33,13.074
-0.185,1.357,72.99270072992701,13.33,13.122
-0.188,1.357,72.99270072992701,13.33,13.112
-0.196,1.357,72.99270072992701,13.33,13.048
-0.191,1.357,72.99270072992701,13.33,12.926
-0.148,1.357,72.99270072992701,13.33,12.804
0.304,17.996,69.99300069993001,50.01,10.002
0.321,18.051,69.99300069993001,49.99,9.994
-0.032,18.016,69.99300069993001,50.01,9.998
-0.085,17.793,69.99300069993001,49.99,10.024
-0.091,16.748,69.99300069993001,49.99,10.144
-0.111,1.341,69.99300069993001,50.06,11.902
-0.115,1.486,69.99300069993001,50.03,11.882
-0.099,1.387,69.99300069993001,50.04,11.846
-0.099,1.323,69.99300069993001,50.09,11.834
0.476,1.355,69.99300069993001,49.95,11.82
-0.275,1.355,69.99300069993001,50.21,11.82
-0.04,1.355,69.99300069993001,49.81,11.822
0.105,1.355,69.99300069993001,50.35,11.83
0.428,1.355,69.99300069993001,49.7,11.828
0.168,1.355,69.99300069993001,50.39,11.834
-0.091,1.353,69.99300069993001,49.8,11.846
-0.09,1.355,69.99300069993001,50.12,11.852
-0.111,1.355,69.99300069993001,50.45,11.822
-0.131,1.353,69.99300069993001,49.08,11.794
-0.147,1.352,69.99300069993001,52.83,11.78
-0.165,1.352,69.99300069993001,29.11,11.774
-0.158,1.352,69.99300069993001,9.96,11.776
0.118,1.352,69.99300069993001,14.81,11.798
-0.111,1.352,69.99300069993001,12.44,11.88
-0.17,1.352,69.99300069993001,13.61,12.002
-0.072,1.352,68.99310068993101,13.25,12.128
0.197,1.351,68.99310068993101,13.16,12.248
0.258,1.352,68.99310068993101,13.5,12.366
-0.185,1.352,68.99310068993101,13.05,12.478
-0.226,1.352,68.99310068993101,13.5,12.578
-0.251,1.351,68.99310068993101,13.12,12.66
-0.272,1.352,68.99310068993101,13.41,12.746
-0.268,1.351,68.99310068993101,13.22,12.834
-0.244,1.35,68.99310068993101,13.32,12.916
0.319,1.35,68.99310068993101,13.28,12.994
-0.384,1.35,68.99310068993101,13.3,13.05
-0.14,1.35,68.99310068993101,13.34,13.098
0.003,1.35,77.99220077992202,13.34,13.112
0.31,1.35,77.99220077992202,13.34,13.074
0.209,1.35,77.99220077992202,13.34,12.998
-0.103,1.35,77.99220077992202,13.34,12.914
-0.103,1.35,77.99220077992202,13.34,12.81
-0.112,1.35,77.99220077992202,13.34,12.664
-0.112,1.35,77.99220077992202,13.34,12.524
-0.098,1.35,77.99220077992202,13.34,12.392
-0.063,1.348,77.99220077992202,13.34,12.316
0.255,1.347,77.99220077992202,13.34,12.274
0.047,1.347,77.99220077992202,13.34,12.226
-0.022,1.347,77.99220077992202,13.34,12.166
0.075,1.347,77.99220077992202,13.34,12.098
0.36,1.347,77.99220077992202,13.34,12.036
0.375,1.347,77.99220077992202,13.34,12.008
-0.045,1.347,77.99220077992202,13.34,11.986
-0.058,1.347,75.99240075992401,13.34,12.0
-0.063,1.347,75.99240075992401,13.34,11.988
-0.079,1.347,75.99240075992401,13.34,11.956
-0.077,1.347,75.99240075992401,13.34,11.924
-0.053,1.347,75.99240075992401,13.34,11.908
-0.074,1.346,75.99240075992401,13.34,11.928
0.331,1.347,75.99240075992401,13.34,11.946
-0.059,1.345,75.99240075992401,13.34,11.982
0.03,1.345,75.99240075992401,13.34,11.984
0.265,1.345,75.99240075992401,13.34,11.938
0.448,1.345,75.99240075992401,13.34,11.91
0.003,1.345,75.99240075992401,13.34,11.894
-0.056,1.345,74.99250074992501,13.34,11.892
-0.055,1.345,74.99250074992501,13.34,11.87
-0.075,1.345,74.99250074992501,13.34,11.832
-0.088,1.345,74.99250074992501,13.34,11.804
-0.068,1.345,74.99250074992501,13.34,11.78
-0.09,1.345,74.99250074992501,13.34,11.738
0.388,1.345,74.99250074992501,13.34,11.694
-0.114,1.342,74.99250074992501,13.34,11.674
0.018,1.345,74.99250074992501,13.34,11.672
0.192,1.342,75.99240075992401,13.34,11.67
0.445,1.342,75.99240075992401,13.34,11.672
0.049,1.342,75.99240075992401,13.34,11.676
0.251,1.342,75.99240075992401,13.34,11.676
0.902,1.342,75.99240075992401,13.34,11.656
-0.238,1.342,75.99240075992401,13.34,11.646
-0.268,1.342,75.99240075992401,13.34,11.648
-0.291,1.341,75.99240075992401,13.34,11.662
-0.15,1.342,75.99240075992401,13.34,11.746
-0.231,1.341,75.99240075992401,13.34,11.858
-0.237,1.342,75.99240075992401,13.34,11.978
-0.26,1.34,75.99240075992401,13.34,12.098
-0.277,1.34,75.99240075992401,13.34,12.228
-0.281,1.34,75.99240075992401,13.34,12.384
-0.277,1.34,75.99240075992401,13.34,12.508
-0.28,1.34,75.99240075992401,13.34,12.616
-0.278,1.34,75.99240075992401,13.34,12.728
-0.27,1.34,75.99240075992401,13.34,12.838
-0.255,1.34,75.99240075992401,13.34,12.936
-0.243,1.34,75.99240075992401,13.34,13.022
-0.187,1.34,75.99240075992401,13.34,13.102
0.26,1.34,75.99240075992401,13.34,13.14
-0.229,1.34,75.99240075992401,13.34,13.1
-0.111,1.34,75.99240075992401,13.34,13.012
0.004,1.34,51.99480051994801,13.34,12.914
0.241,1.34,51.99480051994801,13.34,12.796
0.517,1.34,51.99480051994801,13.34,12.678
0.134,1.34,51.99480051994801,13.34,12.578
-0.039,1.338,51.99480051994801,13.34,12.458
-0.07,1.338,51.99480051994801,13.36,12.328
-0.08,1.337,51.99480051994801,13.34,12.21
-0.078,1.337,51.99480051994801,13.34,12.098
-0.044,1.337,51.99480051994801,13.36,12.04
-0.081,1.337,51.99480051994801,13.36,11.99
0.387,1.337,51.99480051994801,13.36,11.942
-0.049,1.337,51.99480051994801,13.36,11.9
0.058,1.337,51.99480051994801,13.36,11.874
0.27,1.337,51.99480051994801,13.36,11.866
0.452,1.337,51.99480051994801,13.36,11.854
0.027,1.337,51.99480051994801,13.36,11.836
-0.052,1.337,51.99480051994801,13.36,11.854
-0.058,1.337,51.99480051994801,13.36,11.838
-0.074,1.337,51.99480051994801,13.36,11.8
-0.081,1.337,51.99480051994801,13.36,11.78
-0.067,1.337,51.99480051994801,13.36,11.772
-0.073,1.337,51.99480051994801,13.36,11.766
0.46,1.337,51.99480051994801,13.36,11.774
-0.215,1.337,51.99480051994801,13.36,11.784
-0.004,1.337,51.99480051994801,13.36,11.786
0.148,1.337,74.99250074992501,13.36,11.8
0.431,1.337,74.99250074992501,13.36,11.808
0.132,1.337,74.99250074992501,13.36,11.81
-0.091,1.337,74.99250074992501,13.36,11.822
-0.116,1.336,74.99250074992501,13.36,11.822
-0.156,1.337,74.99250074992501,13.36,11.794
-0.177,1.337,74.99250074992501,13.36,11.776
-0.194,1.336,74.99250074992501,13.36,11.798
-0.194,1.335,74.99250074992501,13.36,11.846
-0.223,1.335,74.99250074992501,13.36,11.916
0.275,1.335,74.99250074992501,13.36,12.008
-0.319,1.335,74.99250074992501,13.36,12.11
-0.146,1.335,74.99250074992501,13.36,12.24
0.037,1.335,71.99280071992801,13.36,12.376
0.322,1.335,71.99280071992801,13.36,12.496
-0.045,1.335,71.99280071992801,13.36,12.61
-0.214,1.335,71.99280071992801,13.36,12.714
-0.233,1.335,71.99280071992801,13.36,12.766
-0.257,1.335,71.99280071992801,13.36,12.808
-0.262,1.335,71.99280071992801,13.36,12.842
-0.224,1.335,71.99280071992801,13.36,12.862
0.124,1.335,71.99280071992801,13.36,12.886
-0.137,1.335,71.99280071992801,13.36,12.914
-0.13,1.332,71.99280071992801,13.36,12.952
-0.002,1.332,79.99200079992,13.36,12.932
0.272,1.332,79.99200079992,13.36,12.832
0.248,1.332,79.99200079992,13.36,12.746
-0.114,1.332,79.99200079992,13.36,12.702
-0.129,1.332,79.99200079992,13.36,12.66
-0.146,1.332,79.99200079992,13.36,12.564
-0.154,1.332,79.99200079992,13.37,12.516
-0.149,1.332,79.99200079992,13.36,12.488
-0.14,1.332,79.99200079992,13.37,12.47
-0.111,1.332,79.99200079992,13.37,12.464
0.329,1.332,79.99200079992,13.37,12.444
-0.083,1.332,79.99200079992,13.37,12.424
-0.047,1.331,79.99200079992,13.37,12.38
0.077,1.33,70.992900709929,13.37,12.368
0.385,1.33,70.992900709929,13.36,12.35
0.376,1.33,70.992900709929,13.37,12.294
-0.029,1.33,70.992900709929,13.36,12.21
-0.044,1.33,70.992900709929,13.37,12.138
-0.05,1.33,70.992900709929,13.37,12.03
-0.067,1.33,70.992900709929,13.37,11.932
-0.067,1.33,70.992900709929,13.37,11.866
-0.065,1.33,70.992900709929,13.37,11.824
-0.064,1.33,70.992900709929,13.37,11.802
-0.064,1.33,70.992900709929,13.37,11.786
-0.045,1.33,70.992900709929,13.37,11.788
0.099,1.33,70.992900709929,13.37,11.786
0.217,1.33,70.992900709929,13.37,11.794
-0.015,1.33,70.992900709929,13.37,11.798
0.075,1.328,70.992900709929,13.37,11.804
0.303,1.328,70.992900709929,13.37,11.8
0.422,1.328,70.992900709929,13.37,11.804
-0.03,1.328,70.992900709929,13.37,11.806
-0.109,1.328,60.993900609939004,13.37,11.822
-0.138,1.328,60.993900609939004,13.37,11.818
-0.171,1.328,60.993900609939004,13.37,11.858
-0.184,1.328,60.993900609939004,13.37,11.978
-0.192,1.328,60.993900609939004,13.37,12.11
-0.197,1.328,60.993900609939004,13.37,12.218
-0.2,1.326,60.993900609939004,13.37,12.312
-0.192,1.326,60.993900609939004,13.37,12.404
-0.199,1.328,60.993900609939004,13.37,12.488
0.283,1.325,60.993900609939004,13.37,12.568
-0.209,1.326,60.993900609939004,13.37,12.64
-0.067,1.325,60.993900609939004,13.37,12.706
0.138,1.325,59.99400059994001,13.37,12.766
0.408,1.325,59.99400059994001,13.37,12.812
0.008,1.325,59.99400059994001,13.37,12.848
-0.126,1.325,59.99400059994001,13.37,12.874
-0.135,1.325,59.99400059994001,13.37,12.86
-0.149,1.325,59.99400059994001,13.37,12.834
-0.146,1.325,59.99400059994001,13.37,12.79
-0.134,1.325,59.99400059994001,13.37,12.718
-0.121,1.325,59.99400059994001,13.37,12.644
-0.093,1.323,59.99400059994001,13.37,12.572
-0.079,1.325,59.99400059994001,13.37,12.496
0.484,1.323,59.99400059994001,13.37,12.418
-0.167,1.323,59.99400059994001,13.37,12.382
0.017,1.323,59.99400059994001,13.37,12.39
0.188,1.323,59.99400059994001,13.37,12.424
0.507,1.323,59.99400059994001,13.37,12.428
0.138,1.323,59.99400059994001,13.37,12.418
-0.07,1.323,64.993500649935,13.37,12.4
-0.054,1.323,64.993500649935,13.37,12.36
-0.072,1.323,64.993500649935,13.37,12.312
-0.086,1.323,64.993500649935,13.37,12.286
-0.096,1.323,64.993500649935,13.37,12.234
-0.123,1.323,64.993500649935,13.37,12.16
-0.142,1.32,64.993500649935,13.37,12.108
-0.161,1.32,64.993500649935,13.37,12.082
-0.16,1.32,64.993500649935,13.37,12.112
-0.172,1.32,64.993500649935,13.37,12.254
0.325,1.32,64.993500649935,13.37,12.468
-0.159,1.32,64.993500649935,13.37,12.686
-0.015,1.32,64.993500649935,13.37,12.878
0.207,1.32,58.994100589941006,13.37,13.01
0.489,1.32,58.994100589941006,13.37,13.072
0.081,1.32,58.994100589941006,13.37,13.042
-0.057,1.32,58.994100589941006,13.37,12.926
-0.069,1.32,58.994100589941006,13.37,12.798
-0.091,1.32,58.994100589941006,13.37,12.714
-0.095,1.32,58.994100589941006,13.37,12.666
-0.093,1.32,58.994100589941006,13.37,12.642
-0.089,1.32,58.994100589941006,13.37,12.624
-0.085,1.32,58.994100589941006,13.37,12.622
-0.066,1.32,58.994100589941006,13.37,12.612
-0.067,1.32,58.994100589941006,13.37,12.584
0.513,1.32,58.994100589941006,13.37,12.568
-0.097,1.318,58.994100589941006,13.37,12.554
0.033,1.318,58.994100589941006,13.37,12.548
0.21,1.318,58.994100589941006,13.37,12.548
0.543,1.318,58.994100589941006,13.37,12.556
0.175,1.318,58.994100589941006,13.37,12.548
-0.036,1.318,84.99150084991501,13.37,12.538
-0.031,1.318,84.99150084991501,13.37,12.51
-0.043,1.318,84.99150084991501,13.37,12.474
-0.055,1.318,84.99150084991501,13.37,12.454
-0.052,1.316,84.99150084991501,13.37,12.376
-0.05,1.316,84.99150084991501,13.37,12.306
-0.05,1.315,84.99150084991501,13.37,12.316
-0.037,1.318,84.99150084991501,13.37,12.306
-0.009,1.315,84.99150084991501,13.37,12.306
0.573,1.315,84.99150084991501,13.37,12.288
-0.156,1.315,84.99150084991501,13.37,12.28
0.031,1.315,84.99150084991501,13.37,12.268
0.147,1.315,84.99150084991501,13.37,12.244
0.447,1.315,84.99150084991501,13.37,12.244
0.415,1.315,84.99150084991501,13.37,12.24
0.012,1.315,84.99150084991501,13.37,12.242
-0.009,1.315,59.99400059994001,13.37,12.248
-0.02,1.315,59.99400059994001,13.37,12.202
-0.032,1.315,59.99400059994001,13.37,12.15
-0.032,1.315,59.99400059994001,13.37,12.112
-0.029,1.314,59.99400059994001,13.37,12.076
-0.019,1.314,59.99400059994001,13.37,12.036
-0.012,1.313,59.99400059994001,13.37,12.02
0.008,1.313,59.99400059994001,13.37,12.008
-0.017,1.313,59.99400059994001,13.37,11.986
0.471,1.313,59.99400059994001,13.37,11.952
-0.002,1.313,59.99400059994001,13.37,11.918
0.108,1.313,59.99400059994001,13.37,11.87
0.291,1.313,59.99400059994001,13.37,11.848
0.559,1.313,59.99400059994001,13.37,11.804
0.167,1.313,59.99400059994001,13.37,11.784
0.017,1.313,59.99400059994001,13.37,11.786
-0.005,1.313,59.99400059994001,13.37,11.77
-0.034,1.313,59.99400059994001,13.37,11.74
-0.055,1.313,59.99400059994001,13.37,11.694
-0.083,1.313,59.99400059994001,13.37,11.654
-0.115,1.313,59.99400059994001,13.37,11.624
-0.148,1.313,59.99400059994001,13.37,11.612
-0.155,1.313,59.99400059994001,13.37,11.608
-0.026,1.31,59.99400059994001,13.37,11.664
0.061,1.31,59.99400059994001,13.37,11.824
-0.173,1.311,59.99400059994001,13.37,12.028
-0.084,1.31,59.99400059994001,13.37,12.228
0.158,1.31,62.99370062993701,13.37,12.398
0.346,1.31,62.99370062993701,13.38,12.534
-0.119,1.31,62.99370062993701,13.37,12.676
-0.185,1.31,62.99370062993701,13.38,12.824
-0.192,1.31,62.99370062993701,13.38,12.954
-0.205,1.31,62.99370062993701,13.38,13.04
-0.207,1.31,62.99370062993701,13.38,13.014
-0.191,1.31,62.99370062993701,13.38,12.918
-0.188,1.31,62.99370062993701,13.38,12.828
0.412,1.31,62.99370062993701,13.38,12.78
-0.343,1.31,62.99370062993701,13.38,12.75
-0.107,1.31,62.99370062993701,13.38,12.74
0.06,1.309,73.992600739926,13.38,12.746
0.416,1.31,73.992600739926,13.38,12.746
0.131,1.31,73.992600739926,13.38,12.728
-0.112,1.309,73.992600739926,13.38,12.722
-0.093,1.308,73.992600739926,13.38,12.674
-0.097,1.308,73.992600739926,13.38,12.598
-0.096,1.308,73.992600739926,13.38,12.43
-0.089,1.308,73.992600739926,13.38,12.254
-0.061,1.308,73.992600739926,13.38,12.108
0.015,1.308,73.992600739926,13.38,12.014
0.24,1.308,73.992600739926,13.38,11.938
-0.05,1.308,73.992600739926,13.38,11.884
0.042,1.308,73.992600739926,13.38,11.854
0.283,1.308,73.992600739926,13.38,11.838
0.44,1.308,73.992600739926,13.38,11.83
-0.017,1.308,73.992600739926,13.38,11.828
-0.077,1.306,73.992600739926,13.38,11.84
-0.093,1.308,73.992600739926,13.38,11.824
-0.112,1.308,73.992600739926,13.38,11.792
-0.117,1.308,73.992600739926,13.38,11.774
-0.114,1.305,73.992600739926,13.38,11.77
-0.09,1.306,73.992600739926,13.38,11.766
0.227,1.305,73.992600739926,13.38,11.768
-0.038,1.305,73.992600739926,13.38,11.776
-0.065,1.305,73.992600739926,13.38,11.784
0.033,1.305,71.99280071992801,13.38,11.796
0.291,1.305,71.99280071992801,13.38,11.804
0.344,1.305,71.99280071992801,13.38,11.804
-0.088,1.305,71.99280071992801,13.38,11.816
-0.135,1.305,71.99280071992801,13.39,11.83
-0.166,1.305,71.99280071992801,13.39,11.808
-0.202,1.305,71.99280071992801,13.39,11.782
-0.221,1.305,71.99280071992801,13.39,11.792
-0.229,1.303,71.99280071992801,13.39,11.832
-0.232,1.303,71.99280071992801,13.39,11.896
0.36,1.303,71.99280071992801,13.39,11.988
-0.472,1.303,71.99280071992801,13.39,12.102
-0.206,1.303,71.99280071992801,13.39,12.226
-0.071,1.303,71.99280071992801,13.39,12.352
0.259,1.303,71.99280071992801,13.39,12.492
0.082,1.303,71.99280071992801,13.39,12.618
-0.245,1.303,71.99280071992801,13.39,12.732
-0.259,1.303,71.99280071992801,13.39,12.814
-0.283,1.303,71.99280071992801,13.39,12.872
-0.293,1.303,71.99280071992801,13.39,12.924
-0.256,1.303,71.99280071992801,13.39,12.968
-0.186,1.303,71.99280071992801,13.39,13.014
0.085,1.303,71.99280071992801,13.39,13.044
-0.189,1.303,71.99280071992801,13.39,13.064
-0.058,1.303,71.99280071992801,13.39,13.042
0.207,1.303,80.991900809919,13.39,12.97
0.343,1.3,80.991900809919,13.39,12.878
-0.068,1.3,80.991900809919,13.39,12.774
-0.098,1.3,80.991900809919,13.39,12.67
-0.106,1.3,80.991900809919,13.39,12.54
-0.115,1.3,80.991900809919,13.39,12.414
-0.108,1.3,80.991900809919,13.39,12.304
-0.076,1.3,80.991900809919,13.39,12.21
-0.108,1.3,80.991900809919,13.39,12.144
0.396,1.3,80.991900809919,13.39,12.096
-0.074,1.3,80.991900809919,13.39,12.042
0.03,1.3,80.991900809919,13.39,11.994
0.249,1.3,75.99240075992401,13.39,11.952
0.492,1.3,75.99240075992401,13.39,11.916
0.031,1.3,75.99240075992401,13.39,11.888
-0.065,1.3,75.99240075992401,13.39,11.876
-0.064,1.3,75.99240075992401,13.39,11.85
-0.081,1.299,75.99240075992401,13.39,11.808
-0.087,1.3,75.99240075992401,13.39,11.78
-0.083,1.298,75.99240075992401,13.39,11.768
-0.068,1.298,75.99240075992401,13.39,11.76
-0.07,1.298,75.99240075992401,13.39,11.76
0.454,1.298,75.99240075992401,13.39,11.76
-0.187,1.298,75.99240075992401,13.39,11.762
-0.018,1.298,75.99240075992401,13.39,11.764
0.127,1.298,69.99300069993001,13.39,11.764
0.426,1.298,69.99300069993001,13.39,11.77
0.073,1.298,69.99300069993001,13.39,11.782
-0.159,1.298,69.99300069993001,13.39,11.822
-0.175,1.298,69.99300069993001,13.39,11.874
-0.212,1.298,69.99300069993001,13.39,11.922
-0.237,1.298,69.99300069993001,13.39,11.994
-0.252,1.298,69.99300069993001,13.39,12.09
-0.261,1.296,69.99300069993001,13.39,12.196
-0.247,1.295,69.99300069993001,13.39,12.306
0.325,1.296,69.99300069993001,13.39,12.418
-0.45,1.295,69.99300069993001,13.39,12.542
-0.199,1.295,69.99300069993001,13.39,12.674
-0.065,1.295,68.99310068993101,13.39,12.782
0.253,1.295,68.99310068993101,13.39,12.882
0.173,1.295,68.99310068993101,13.39,12.96
-0.183,1.295,68.99310068993101,13.39,13.018
-0.192,1.295,68.99310068993101,13.39,13.036
-0.203,1.295,68.99310068993101,13.39,13.028
-0.202,1.295,68.99310068993101,13.39,12.99
-0.185,1.295,68.99310068993101,13.39,12.93
-0.143,1.295,68.99310068993101,13.39,12.83
0.331,1.295,68.99310068993101,13.39,12.72
-0.178,1.295,68.99310068993101,13.39,12.62
-0.056,1.295,68.99310068993101,13.39,12.524
0.073,1.295,68.99310068993101,13.39,12.432
0.381,1.293,68.99310068993101,13.39,12.336
0.338,1.294,68.99310068993101,13.39,12.252
-0.045,1.293,68.99310068993101,13.39,12.162
-0.049,1.293,76.992300769923,13.39,12.09
-0.055,1.293,76.992300769923,13.39,11.994
-0.068,1.293,76.992300769923,13.39,11.92
-0.067,1.293,76.992300769923,13.39,11.864
-0.066,1.293,76.992300769923,13.39,11.826
-0.054,1.293,76.992300769923,13.39,11.802
-0.052,1.293,76.992300769923,13.39,11.782
0.516,1.293,76.992300769923,13.39,11.77
-0.182,1.293,76.992300769923,13.39,11.764
0.025,1.293,76.992300769923,13.39,11.772
0.178,1.293,76.992300769923,13.39,11.774
0.504,1.293,76.992300769923,13.39,11.778
0.218,1.293,76.992300769923,13.39,11.782
-0.007,1.293,76.992300769923,13.39,11.782
1.059,1.293,66.993300669933,13.39,11.78
0.07,1.293,66.993300669933,13.39,11.748
-0.15,1.293,66.993300669933,13.41,11.722
-0.194,1.29,66.993300669933,13.39,11.708
-0.087,1.29,66.993300669933,13.41,11.708
-0.098,1.291,66.993300669933,13.41,11.706
-0.152,1.29,66.993300669933,13.41,11.716
-0.163,1.29,66.993300669933,13.41,11.756
-0.194,1.29,66.993300669933,13.41,11.814
-0.212,1.29,66.993300669933,13.41,11.886
-0.224,1.29,66.993300669933,13.41,11.984
-0.231,1.29,66.993300669933,13.39,12.084
-0.236,1.29,66.993300669933,13.41,12.208
-0.242,1.29,66.993300669933,13.41,12.352
-0.243,1.29,66.993300669933,13.39,12.498
-0.245,1.29,66.993300669933,13.41,12.624
-0.241,1.29,66.993300669933,13.41,12.728
-0.212,1.29,66.993300669933,13.41,12.84
-0.226,1.29,66.993300669933,13.41,12.952
0.271,1.289,66.993300669933,13.41,13.05
-0.24,1.288,66.993300669933,13.41,13.128
-0.09,1.288,66.993300669933,13.41,13.186
0.08,1.288,66.993300669933,13.41,13.198
0.434,1.288,66.993300669933,13.41,13.178
0.279,1.288,66.993300669933,13.41,13.116
-0.04,1.288,66.993300669933,13.41,13.018
-0.087,1.288,66.993300669933,13.41,12.868
-0.098,1.288,66.993300669933,13.41,12.724
-0.093,1.288,66.993300669933,13.41,12.598
-0.062,17.996,69.99300069993001,50.01,10.002
0.048,18.051,69.99300069993001,49.99,9.994
0.204,18.016,69.99300069993001,50.01,9.998
0.51,17.793,69.99300069993001,49.99,10.022
0.22,16.743,69.99300069993001,49.99,10.142
-0.031,1.27,69.99300069993001,50.06,11.888
-0.027,1.417,69.99300069993001,50.03,11.85
-0.042,1.319,69.99300069993001,50.04,11.812
-0.049,1.253,69.99300069993001,50.09,11.778
-0.047,1.285,69.99300069993001,49.95,11.76
-0.045,1.285,69.99300069993001,50.21,11.75
-0.017,1.285,69.99300069993001,49.81,11.742
0.06,1.285,69.99300069993001,50.35,11.744
0.293,1.285,69.99300069993001,49.7,11.742
-0.001,1.285,69.99300069993001,50.37,11.738
0.09,1.285,69.99300069993001,49.8,11.732
0.32,1.285,69.99300069993001,50.12,11.73
0.473,1.285,69.99300069993001,50.45,11.728
0.007,1.285,69.99300069993001,49.08,11.714
-0.08,1.285,98.99010098990101,52.81,11.722
-0.102,1.285,98.99010098990101,29.14,11.712
-0.138,1.285,98.99010098990101,10.04,11.714
-0.156,1.284,98.99010098990101,14.87,11.756
-0.17,1.284,98.99010098990101,12.51,11.84
-0.158,1.283,98.99010098990101,13.69,11.932
-0.197,1.283,98.99010098990101,13.32,12.026
0.272,1.283,98.99010098990101,13.23,12.138
-0.216,1.283,98.99010098990101,13.58,12.26
-0.09,1.283,98.99010098990101,13.12,12.38
0.123,1.283,69.99300069993001,13.58,12.5
0.388,1.283,69.99300069993001,13.19,12.614
-0.06,1.283,69.99300069993001,13.48,12.722
-0.188,1.283,69.99300069993001,13.3,12.82
-0.203,1.283,69.99300069993001,13.39,12.87
-0.219,1.283,69.99300069993001,13.36,12.92
-0.204,1.283,69.99300069993001,13.37,12.966
-0.185,1.283,69.99300069993001,13.42,12.996
0.438,1.283,69.99300069993001,13.42,13.01
-0.362,1.283,69.99300069993001,13.42,12.992
-0.066,1.283,69.99300069993001,13.42,12.936
0.087,1.283,80.991900809919,13.42,12.844
0.42,1.283,80.991900809919,13.42,12.742
0.204,1.283,80.991900809919,13.42,12.646
-0.06,1.283,80.991900809919,13.42,12.558
-0.05,1.281,80.991900809919,13.42,12.468
-0.059,1.28,80.991900809919,13.42,12.352
-0.06,1.28,80.991900809919,13.42,12.252
-0.05,1.28,80.991900809919,13.42,12.156
-0.024,1.28,80.991900809919,13.42,12.08
0.462,1.28,80.991900809919,13.42,12.02
-0.097,1.28,80.991900809919,13.42,11.966
0.014,1.28,80.991900809919,13.42,11.92
0.125,1.28,80.991900809919,13.42,11.89
0.434,1.28,80.991900809919,13.42,11.866
0.374,1.28,80.991900809919,13.42,11.844
-0.037,1.28,80.991900809919,13.42,11.83
-0.05,1.28,75.99240075992401,13.42,11.828
-0.057,1.28,75.99240075992401,13.42,11.794
-0.075,1.28,75.99240075992401,13.42,11.776
-0.078,1.28,75.99240075992401,13.42,11.784
-0.064,1.28,75.99240075992401,13.42,11.778
0.462,1.28,75.99240075992401,13.42,11.774
0.372,1.28,75.99240075992401,13.42,11.77
-0.153,1.28,75.99240075992401,13.42,11.772
0.016,1.28,79.99200079992,13.42,11.79
0.188,1.279,79.99200079992,13.42,11.822
0.498,1.28,79.99200079992,13.42,11.812
0.115,1.279,79.99200079992,13.42,11.812
-0.07,1.278,79.99200079992,13.42,11.812
-0.063,1.278,79.99200079992,13.42,11.808
-0.079,1.278,79.99200079992,13.42,11.778
-0.085,1.278,79.99200079992,13.42,11.756
-0.08,1.278,79.99200079992,13.42,11.746
-0.056,1.278,79.99200079992,13.42,11.74
0.103,1.278,79.99200079992,13.42,11.736
0.149,1.278,79.99200079992,13.42,11.732
-0.03,1.278,79.99200079992,13.42,11.726
0.063,1.278,79.99200079992,13.42,11.718
0.315,1.278,67.993200679932,13.42,11.712
0.394,1.278,67.993200679932,13.42,11.71
-0.062,1.278,67.993200679932,13.42,11.704
-0.116,1.278,67.993200679932,13.42,11.714
-0.143,1.278,67.993200679932,13.42,11.704
-0.177,1.275,67.993200679932,13.42,11.712
-0.193,1.278,67.993200679932,13.42,11.766
-0.202,1.276,67.993200679932,13.42,11.852
-0.212,1.275,67.993200679932,13.42,11.954
-0.195,1.275,67.993200679932,13.42,12.05
-0.115,1.275,67.993200679932,13.42,12.152
0.096,1.275,67.993200679932,13.42,12.252
-0.186,1.275,67.993200679932,13.42,12.362
-0.082,1.275,67.993200679932,13.42,12.468
0.168,1.275,65.99340065993401,13.42,12.576
0.352,1.275,65.99340065993401,13.42,12.666
-0.107,1.275,65.99340065993401,13.42,12.748
-0.182,1.275,65.99340065993401,13.42,12.814
-0.196,1.275,65.99340065993401,13.42,12.846
-0.206,1.275,65.99340065993401,13.42,12.874
-0.196,1.275,65.99340065993401,13.42,12.894
-0.173,1.275,65.99340065993401,13.42,12.894
-0.133,1.275,65.99340065993401,13.42,12.85
0.467,1.275,65.99340065993401,13.42,12.762
-0.281,1.274,65.99340065993401,13.42,12.662
-0.024,1.274,65.99340065993401,13.42,12.556
0.112,1.273,71.99280071992801,13.42,12.44
0.437,1.273,71.99280071992801,13.42,12.336
0.324,1.273,71.99280071992801,13.42,12.246
-0.03,1.273,71.99280071992801,13.42,12.182
-0.025,1.273,71.99280071992801,13.42,12.124
-0.035,1.273,71.99280071992801,13.42,12.038
-0.049,1.273,71.99280071992801,13.42,11.966
-0.048,1.273,71.99280071992801,13.42,11.908
-0.046,1.273,71.99280071992801,13.43,11.862
-0.038,1.273,71.99280071992801,13.42,11.828
-0.031,1.273,71.99280071992801,13.42,11.804
-0.009,1.273,71.99280071992801,13.42,11.788
0.576,1.273,71.99280071992801,13.42,11.778
-0.165,1.273,71.99280071992801,13.42,11.772
0.066,1.273,71.99280071992801,13.42,11.77
0.209,1.273,71.99280071992801,13.42,11.764
0.543,1.273,71.99280071992801,13.42,11.758
0.311,1.273,71.99280071992801,13.43,11.746
-0.002,1.273,71.99280071992801,13.43,11.744
-0.015,1.273,62.99370062993701,13.43,11.746
-0.048,1.273,62.99370062993701,13.43,11.704
-0.085,1.273,62.99370062993701,13.43,11.668
-0.109,1.27,62.99370062993701,13.43,11.646
-0.133,1.27,62.99370062993701,13.43,11.63
-0.156,1.27,62.99370062993701,13.43,11.628
-0.174,1.27,62.99370062993701,13.43,11.664
-0.178,1.27,62.99370062993701,13.43,11.756
-0.175,1.27,62.99370062993701,13.43,11.872
0.21,1.27,62.99370062993701,13.43,12.012
-0.187,1.27,62.99370062993701,13.43,12.16
-0.093,1.27,62.99370062993701,13.43,12.29
0.132,1.27,58.994100589941006,13.43,12.402
0.381,1.27,58.994100589941006,13.43,12.508
-0.087,1.27,58.994100589941006,13.43,12.606
-0.21,1.27,58.994100589941006,13.43,12.702
-0.227,1.27,58.994100589941006,13.43,12.764
-0.249,1.27,58.994100589941006,13.43,12.824
-0.248,1.27,58.994100589941006,13.43,12.878
-0.237,1.27,58.994100589941006,13.43,12.926
-0.216,1.27,58.994100589941006,13.43,12.962
-0.193,1.27,58.994100589941006,13.43,12.972
0.423,1.269,58.994100589941006,13.43,12.936
-0.345,1.268,58.994100589941006,13.43,12.862
-0.067,1.268,58.994100589941006,13.43,12.778
0.094,1.268,68.99310068993101,13.43,12.7
0.439,1.268,68.99310068993101,13.43,12.6
0.204,1.268,68.99310068993101,13.43,12.486
-0.079,1.268,68.99310068993101,13.43,12.388
-0.078,1.268,68.99310068993101,13.43,12.294
-0.093,1.268,68.99310068993101,13.43,12.192
-0.1,1.268,68.99310068993101,13.43,12.1
-0.096,1.268,68.99310068993101,13.43,12.042
-0.09,1.268,68.99310068993101,13.43,11.998
-0.085,1.268,68.99310068993101,13.43,11.966
-0.062,1.268,68.99310068993101,13.43,11.942
0.396,1.268,68.99310068993101,13.43,11.922
-0.112,1.268,68.99310068993101,13.43,11.892
-0.016,1.268,68.99310068993101,13.43,11.87
0.091,1.268,68.99310068993101,13.43,11.858
0.38,1.268,68.99310068993101,13.43,11.844
0.42,1.268,68.99310068993101,13.43,11.83
-0.021,1.268,68.99310068993101,13.43,11.818
-0.051,1.268,64.993500649935,13.43,11.814
-0.06,1.268,64.993500649935,13.44,11.774
-0.079,1.268,64.993500649935,13.43,11.736
-0.084,1.268,64.993500649935,13.43,11.714
-0.091,1.268,64.993500649935,13.44,11.7
-0.105,1.268,64.993500649935,13.44,11.684
-0.124,1.268,64.993500649935,13.43,11.68
-0.143,1.266,64.993500649935,13.43,11.684
-0.146,1.265,64.993500649935,13.44,11.694
0.392,1.265,64.993500649935,13.43,11.716
-0.311,1.265,64.993500649935,13.44,11.774
-0.114,1.265,64.993500649935,13.44,11.862
0.027,1.265,58.994100589941006,13.43,11.968
0.357,1.265,58.994100589941006,13.44,12.082
0.105,1.265,58.994100589941006,13.43,12.188
-0.206,1.265,58.994100589941006,13.44,12.31
-0.227,1.265,58.994100589941006,13.44,12.41
-0.257,1.265,58.994100589941006,13.43,12.504
-0.272,1.265,58.994100589941006,13.44,12.594
-0.275,1.265,58.994100589941006,13.44,12.686
-0.273,1.265,58.994100589941006,13.44,12.764
-0.238,1.265,58.994100589941006,13.44,12.83
-0.055,1.265,58.994100589941006,13.44,12.892
-0.008,1.265,58.994100589941006,13.44,12.944
-0.172,1.265,58.994100589941006,13.44,12.992
-0.052,1.265,58.994100589941006,13.44,13.006
0.211,1.265,67.993200679932,13.44,12.976
0.368,1.265,67.993200679932,13.44,12.91
-0.075,1.265,67.993200679932,13.44,12.824
-0.128,1.265,67.993200679932,13.44,12.734
-0.136,1.264,67.993200679932,13.44,12.622
-0.141,1.265,67.993200679932,13.43,12.512
-0.134,1.263,67.993200679932,13.44,12.414
-0.125,1.263,67.993200679932,13.44,12.326
-0.09,1.263,67.993200679932,13.44,12.254
-0.061,1.263,67.993200679932,13.44,12.194
0.302,1.263,67.993200679932,13.44,12.14
-0.066,1.263,67.993200679932,13.44,12.096
0.034,1.263,67.993200679932,13.44,12.066
0.274,1.263,67.993200679932,13.44,12.044
0.484,1.263,67.993200679932,13.44,12.024
0.01,1.263,67.993200679932,13.44,12.002
-0.071,1.263,70.992900709929,13.44,11.978
-0.073,1.263,70.992900709929,13.44,11.922
-0.09,1.263,70.992900709929,13.44,11.868
-0.092,1.263,70.992900709929,13.44,11.828
-0.087,1.261,70.992900709929,13.44,11.8
-0.081,1.26,70.992900709929,13.44,11.78
-0.062,1.263,70.992900709929,13.44,11.764
-0.071,1.26,70.992900709929,13.44,11.758
0.432,1.26,70.992900709929,13.44,11.748
-0.11,1.26,70.992900709929,13.44,11.75
0.031,1.263,70.992900709929,13.44,11.748
0.197,1.261,70.992900709929,13.44,11.74
0.494,1.26,70.992900709929,13.44,11.734
0.129,1.26,70.992900709929,13.44,11.728
-0.096,1.26,64.993500649935,13.44,11.728
-0.124,1.26,64.993500649935,13.44,11.724
-0.167,1.26,64.993500649935,13.44,11.718
-0.192,1.26,64.993500649935,13.44,11.762
0.093,17.996,69.99300069993001,50.01,10.002
0.399,18.051,69.99300069993001,49.99,9.99
-0.004,18.018,69.99300069993001,50.01,9.996
-0.177,17.793,69.99300069993001,49.99,10.036
-0.192,16.741,69.99300069993001,49.99,10.228
-0.203,1.244,69.99300069993001,50.06,13.056
-0.197,1.391,69.99300069993001,50.03,13.038
-0.168,1.29,69.99300069993001,50.04,13.026
-0.159,1.225,69.99300069993001,50.09,12.97
0.409,1.259,69.99300069993001,49.95,12.87
-0.239,1.258,69.99300069993001,50.2,12.774
-0.016,1.258,69.99300069993001,49.81,12.674
0.164,1.258,69.99300069993001,50.35,12.578
0.487,1.258,69.99300069993001,49.7,12.476
0.135,1.258,69.99300069993001,50.37,12.372
-0.053,1.258,69.99300069993001,49.8,12.298
-0.051,1.255,69.99300069993001,13.45,11.722
0.416,1.255,69.99300069993001,13.45,11.724
-0.043,1.255,69.99300069993001,13.45,11.724
-0.1,1.255,69.99300069993001,13.45,11.752
-0.132,1.255,69.99300069993001,13.45,11.76
-0.167,1.255,69.99300069993001,13.45,11.8
-0.181,1.254,69.99300069993001,13.45,11.882
-0.191,1.253,69.99300069993001,13.45,11.978
-0.177,1.253,69.99300069993001,13.45,12.094
-0.211,1.253,69.99300069993001,13.45,12.196
0.256,1.253,69.99300069993001,13.45,12.308
-0.228,1.253,69.99300069993001,13.45,12.414
-0.097,1.254,69.99300069993001,13.45,12.51
0.113,1.253,69.99300069993001,13.45,12.602
0.393,1.253,69.99300069993001,13.45,12.686
-0.044,1.253,69.99300069993001,13.45,12.756
-0.181,1.253,69.99300069993001,13.45,12.824
-0.196,1.253,69.99300069993001,13.45,12.858
-0.208,1.253,69.99300069993001,13.45,12.888
-0.2,1.253,69.99300069993001,13.45,12.918
-0.161,1.253,69.99300069993001,13.45,12.934
0.079,1.253,69.99300069993001,13.45,12.916
0.019,1.253,69.99300069993001,13.45,12.852
-0.106,1.253,69.99300069993001,13.45,12.764
0.006,1.253,78.99210078992101,13.45,12.672
0.295,1.253,78.99210078992101,13.45,12.598
0.355,1.253,78.99210078992101,13.45,12.542
-0.08,1.251,78.99210078992101,13.45,12.5
-0.098,1.25,78.99210078992101,13.45,12.466
-0.1,1.25,78.99210078992101,13.45,12.396
-0.106,1.25,78.99210078992101,13.45,12.324
-0.1,1.25,78.99210078992101,13.45,12.264
-0.07,1.25,78.99210078992101,13.45,12.216
-0.097,1.25,78.99210078992101,13.45,12.17
0.438,1.25,78.99210078992101,13.45,12.118
-0.035,1.25,78.99210078992101,13.45,12.072
0.053,1.25,78.99210078992101,13.45,12.042
0.224,1.25,74.99250074992501,13.45,12.038
0.526,1.25,74.99250074992501,13.45,12.05
0.094,1.25,74.99250074992501,13.45,12.038
-0.056,1.25,74.99250074992501,13.45,12.01
-0.049,1.25,74.99250074992501,13.45,12.006
-0.066,1.25,74.99250074992501,13.45,11.958
-0.072,1.249,74.99250074992501,13.45,11.922
-0.068,1.249,74.99250074992501,13.45,11.886
-0.041,1.249,74.99250074992501,13.47,11.856
-0.053,1.25,74.99250074992501,13.47,11.822
0.357,1.25,74.99250074992501,13.47,11.796
-0.04,1.248,74.99250074992501,13.47,11.778
0.051,1.25,74.99250074992501,13.47,11.77
0.273,1.248,74.99250074992501,13.47,11.764
0.48,1.248,74.99250074992501,13.47,11.768
0.02,1.248,74.99250074992501,13.47,11.774
-0.066,1.248,71.99280071992801,13.47,11.79
-0.072,1.248,71.99280071992801,13.47,11.786
-0.095,1.248,71.99280071992801,13.47,11.76
-0.097,1.248,71.99280071992801,13.47,11.738
-0.092,1.248,71.99280071992801,13.47,11.73
-0.072,1.248,71.99280071992801,13.47,11.728
-0.078,1.248,71.99280071992801,13.47,11.728
0.431,1.248,71.99280071992801,13.45,11.736
-0.174,1.248,71.99280071992801,13.47,11.74
-0.01,1.248,71.99280071992801,13.47,11.742
0.14,1.248,69.99300069993001,13.47,11.742
0.431,1.248,69.99300069993001,13.47,11.742
0.071,1.248,69.99300069993001,13.47,11.742
-0.148,1.248,69.99300069993001,13.47,11.764
-0.164,1.248,69.99300069993001,13.47,11.8
-0.201,1.248,69.99300069993001,13.47,11.82
-0.221,1.245,69.99300069993001,13.47,11.888
-0.229,1.245,69.99300069993001,13.47,11.992
-0.224,1.245,69.99300069993001,13.47,12.092
-0.227,1.245,69.99300069993001,13.45,12.188
0.353,1.245,69.99300069993001,13.47,12.294
-0.417,1.245,69.99300069993001,13.47,12.398
-0.158,1.245,69.99300069993001,13.47,12.498
-0.001,1.245,69.99300069993001,13.47,12.594
0.332,1.245,69.99300069993001,13.47,12.688
0.085,1.245,69.99300069993001,13.47,12.766
-0.188,1.245,69.99300069993001,13.47,12.848
-0.193,1.245,69.99300069993001,13.47,12.898
-0.208,1.245,69.99300069993001,13.47,12.928
-0.206,1.245,69.99300069993001,13.47,12.936
-0.181,1.245,69.99300069993001,13.47,12.938
-0.165,1.245,69.99300069993001,13.47,12.898
0.461,1.245,69.99300069993001,13.47,12.82
-0.344,1.245,69.99300069993001,13.47,12.738
-0.059,1.245,69.99300069993001,13.47,12.664
0.094,1.245,75.99240075992401,13.47,12.588
0.426,1.245,75.99240075992401,13.47,12.5
0.214,1.244,75.99240075992401,13.47,12.414
-0.066,1.243,75.99240075992401,13.47,12.346
-0.046,17.996,69.99300069993001,50.01,10.002
-0.054,18.051,69.99300069993001,49.99,9.994
-0.023,18.017,69.99300069993001,50.01,9.998
0.037,17.793,69.99300069993001,49.99,10.022
0.331,16.741,69.99300069993001,49.99,10.142
-0.001,1.228,69.99300069993001,50.06,11.88
0.094,1.375,69.99300069993001,50.03,11.85
0.335,1.275,69.99300069993001,50.04,11.842
0.517,1.21,69.99300069993001,50.09,11.836
0.045,1.243,69.99300069993001,49.95,11.82
-0.029,1.243,69.99300069993001,50.2,11.826
-0.034,1.243,69.99300069993001,49.81,11.804
-0.061,1.243,69.99300069993001,50.35,11.762
-0.072,1.243,69.99300069993001,49.7,11.744
-0.084,1.243,69.99300069993001,50.37,11.732
-0.098,1.241,69.99300069993001,49.8,11.728
-0.112,1.242,69.99300069993001,50.12,11.724
-0.107,1.241,69.99300069993001,50.45,11.744
-0.015,1.241,69.99300069993001,49.08,11.788
0.152,1.241,69.99300069993001,52.81,11.856
-0.124,1.241,69.99300069993001,29.17,11.946
-0.036,1.241,69.99300069993001,10.1,12.05
0.204,1.241,61.99380061993801,14.92,12.15
0.391,1.241,61.99380061993801,12.58,12.254
-0.088,1.241,61.99380061993801,13.74,12.354
-0.175,1.241,61.99380061993801,13.37,12.45
-0.194,1.241,61.99380061993801,13.3,12.516
-0.219,1.241,61.99380061993801,13.63,12.588
-0.226,1.241,61.99380061993801,13.19,12.664
-0.224,1.241,61.99380061993801,13.63,12.734
-0.203,1.241,61.99380061993801,13.25,12.8
-0.2,1.241,61.99380061993801,13.54,12.844
0.354,1.241,61.99380061993801,13.34,12.89
-0.28,1.241,61.99380061993801,13.45,12.918
-0.06,1.239,61.99380061993801,13.41,12.936
0.122,1.239,68.99310068993101,13.42,12.92
0.442,1.238,68.99310068993101,13.47,12.862
0.111,1.238,68.99310068993101,13.47,12.77
-0.078,1.238,68.99310068993101,13.47,12.672
-0.083,1.238,68.99310068993101,13.47,12.556
-0.097,1.238,68.99310068993101,13.47,12.428
-0.093,1.238,68.99310068993101,13.47,12.32
-0.084,1.238,68.99310068993101,13.47,12.226
-0.073,1.238,68.99310068993101,13.47,12.16
-0.046,1.238,68.99310068993101,13.47,12.106
-0.068,1.238,68.99310068993101,13.47,12.068
0.436,1.238,68.99310068993101,13.47,12.03
-0.042,1.238,68.99310068993101,13.47,11.996
0.068,1.238,68.99310068993101,13.47,11.964
0.271,1.238,68.99310068993101,13.47,11.944
0.156,1.238,68.99310068993101,13.47,11.914
-0.031,1.238,66.993300669933,13.47,11.884
-0.027,1.238,66.993300669933,13.47,11.872
-0.047,1.238,66.993300669933,13.47,11.848
-0.053,1.238,66.993300669933,13.47,11.8
-0.051,1.237,66.993300669933,13.47,11.754
-0.049,1.237,66.993300669933,13.47,11.742
-0.046,1.236,66.993300669933,13.48,11.738
-0.024,1.237,66.993300669933,13.47,11.732
-0.021,1.236,66.993300669933,13.47,11.734
0.371,1.236,66.993300669933,13.48,11.736
-0.024,1.236,66.993300669933,13.47,11.742
0.051,1.236,66.993300669933,13.48,11.742
0.252,1.236,66.993300669933,13.48,11.744
0.48,1.236,66.993300669933,13.48,11.748
0.013,1.236,66.993300669933,13.48,11.764
-0.112,1.236,66.993300669933,13.48,11.826
-0.13,1.236,66.993300669933,13.48,11.878
-0.164,1.236,66.993300669933,13.48,11.936
-0.18,1.236,66.993300669933,13.48,12.014
-0.19,1.236,66.993300669933,13.48,12.094
-0.198,1.234,66.993300669933,13.48,12.18
-0.183,1.234,66.993300669933,13.48,12.276
-0.199,1.233,66.993300669933,13.48,12.38
0.221,1.233,66.993300669933,13.48,12.478
-0.205,1.234,66.993300669933,13.48,12.588
-0.089,1.234,66.993300669933,13.48,12.696
0.137,1.233,65.99340065993401,13.48,12.806
0.399,1.233,65.99340065993401,13.48,12.9
-0.06,1.233,65.99340065993401,13.48,12.982
-0.177,1.233,65.99340065993401,13.48,13.056
-0.189,1.233,65.99340065993401,13.48,13.096
-0.197,1.233,65.99340065993401,13.48,13.134
-0.19,1.233,65.99340065993401,13.48,13.162
-0.16,1.233,65.99340065993401,13.48,13.152
-0.139,1.233,65.99340065993401,13.48,13.082
0.477,1.233,65.99340065993401,13.48,12.982
-0.292,1.233,65.99340065993401,13.48,12.878
-0.02,1.233,65.99340065993401,13.48,12.782
0.139,1.233,74.99250074992501,13.48,12.678
0.477,1.233,74.99250074992501,13.48,12.564
0.222,1.232,74.99250074992501,13.48,12.458
-0.037,1.231,74.99250074992501,13.48,12.378
-0.031,1.231,74.99250074992501,13.48,12.292
-0.042,1.231,74.99250074992501,13.48,12.208
-0.046,1.231,74.99250074992501,13.48,12.134
-0.042,1.231,74.99250074992501,13.48,12.072
-0.038,1.231,74.99250074992501,13.48,12.022
-0.009,1.231,74.99250074992501,13.48,11.984
0.152,1.231,74.99250074992501,13.48,11.958
0.237,1.231,74.99250074992501,13.48,11.934
0.017,1.231,74.99250074992501,13.48,11.92
0.114,1.231,74.99250074992501,13.48,11.91
0.371,1.231,74.99250074992501,13.48,11.906
0.519,1.231,74.99250074992501,13.48,11.898
0.051,1.231,74.99250074992501,13.48,11.896
-0.009,1.231,67.993200679932,13.48,11.902
-0.018,1.231,67.993200679932,13.48,11.874
-0.041,1.231,67.993200679932,13.48,11.84
-0.048,1.231,67.993200679932,13.48,11.812
-0.05,1.231,67.993200679932,13.48,11.794
-0.048,1.231,67.993200679932,13.48,11.784
-0.054,1.231,67.993200679932,13.48,11.776
0.549,1.231,67.993200679932,13.48,11.778
-0.288,1.231,67.993200679932,13.48,11.786
-0.045,1.231,67.993200679932,13.48,11.788
0.06,1.231,67.993200679932,13.48,11.81
0.359,1.229,67.993200679932,13.48,11.812
0.21,1.228,67.993200679932,13.48,11.856
-0.165,1.228,67.993200679932,13.48,11.938
-0.191,1.228,67.993200679932,13.48,12.054
-0.223,1.228,67.993200679932,13.48,12.144
-0.25,1.228,67.993200679932,13.48,12.252
-0.261,1.228,67.993200679932,13.48,12.386
-0.257,1.228,67.993200679932,13.48,12.498
-0.266,1.228,67.993200679932,13.49,12.598
0.291,1.228,67.993200679932,13.48,12.68
-0.421,1.228,67.993200679932,13.49,12.764
-0.188,1.228,67.993200679932,13.49,12.848
-0.018,1.228,71.99280071992801,13.48,12.934
0.319,1.228,71.99280071992801,13.49,13.006
0.017,1.228,71.99280071992801,13.47,13.072
-0.215,1.228,71.99280071992801,13.49,13.134
-0.213,1.226,71.99280071992801,13.41,13.162
-0.216,1.226,71.99280071992801,13.38,13.172
-0.202,1.227,71.99280071992801,13.54,13.134
-0.157,1.227,71.99280071992801,13.61,13.022
-0.054,1.228,71.99280071992801,13.64,12.878
0.18,1.228,71.99280071992801,13.69,12.73
-0.083,1.226,71.99280071992801,13.7,12.59
0.028,1.227,71.99280071992801,13.83,12.468
0.295,1.226,79.99200079992,13.78,12.344
0.422,1.226,79.99200079992,13.61,12.242
-0.028,1.226,79.99200079992,13.95,12.162
-0.066,1.226,79.99200079992,14.25,12.108
-0.068,1.226,79.99200079992,14.21,12.05
-0.086,1.226,79.99200079992,14.47,11.992
-0.087,1.226,79.99200079992,13.93,11.948
-0.075,1.226,79.99200079992,13.5,11.912
-0.066,1.226,79.99200079992,13.21,11.884
0.548,1.226,79.99200079992,13.06,11.868
-0.263,1.226,79.99200079992,14.14,11.862
-0.003,1.226,79.99200079992,14.42,11.854
0.131,1.226,79.99200079992,18.34,11.844
0.461,1.226,79.99200079992,26.65,11.838
0.268,1.226,79.99200079992,50.96,11.832
-0.05,1.226,72.99270072992701,75.63,11.824
0.717,1.226,72.99270072992701,80.54,11.832
0.487,1.226,72.99270072992701,70.09,11.794
-0.168,1.226,72.99270072992701,39.46,11.758
-0.203,1.226,72.99270072992701,27.03,11.74
-0.177,1.223,72.99270072992701,44.76,11.732
-0.096,1.226,72.99270072992701,69.88,11.728
-0.185,1.224,72.99270072992701,82.29,11.75
-0.186,1.223,72.99270072992701,81.41,11.81
-0.213,1.223,72.99270072992701,66.73,11.902
-0.23,1.223,72.99270072992701,36.0,12.012
-0.237,1.223,72.99270072992701,39.93,12.146
-0.244,1.223,72.99270072992701,71.31,12.268
-0.246,1.223,72.99270072992701,85.86,12.378
-0.246,1.223,72.99270072992701,86.09,12.494
-0.244,1.223,72.99270072992701,81.91,12.6
-0.241,1.223,72.99270072992701,54.13,12.704
-0.239,1.223,72.99270072992701,26.47,12.802
-0.208,1.223,72.99270072992701,27.1,12.894
0.386,1.223,72.99270072992701,27.65,12.972
-0.388,1.223,72.99270072992701,26.54,13.042
-0.132,1.223,72.99270072992701,25.93,13.098
-0.008,1.223,51.99480051994801,24.6,13.146
0.263,1.222,51.99480051994801,23.95,13.166
0.47,1.223,51.99480051994801,22.82,13.134
0.065,1.221,51.99480051994801,22.68,13.054
-0.065,1.223,51.99480051994801,22.18,12.918
-0.092,1.222,51.99480051994801,21.95,12.772
-0.096,1.221,51.99480051994801,21.51,12.636
-0.086,1.221,51.99480051994801,21.33,12.51
-0.05,1.221,51.99480051994801,21.26,12.41
-0.072,1.221,51.99480051994801,21.16,12.336
0.404,1.221,51.99480051994801,21.06,12.268
-0.027,1.221,51.99480051994801,21.01,12.212
0.082,1.221,51.99480051994801,20.99,12.158
0.307,1.221,51.99480051994801,20.89,12.11
0.505,1.221,51.99480051994801,20.79,12.064
0.04,1.221,51.99480051994801,20.72,12.018
-0.053,1.221,51.99480051994801,20.69,11.98
-0.057,1.221,51.99480051994801,20.67,11.932
-0.078,1.221,51.99480051994801,20.66,11.882
-0.082,1.221,51.99480051994801,20.58,11.852
-0.065,1.221,51.99480051994801,20.52,11.864
-0.083,1.221,51.99480051994801,20.51,11.888
0.417,1.219,51.99480051994801,20.45,11.894
-0.139,1.219,51.99480051994801,20.46,11.888
0.016,1.218,51.99480051994801,20.47,11.882
0.197,1.219,51.99480051994801,20.4,11.886
0.499,1.218,51.99480051994801,20.36,11.904
0.112,1.219,51.99480051994801,20.3,11.932
-0.065,1.218,74.99250074992501,20.32,11.928
-0.069,1.218,74.99250074992501,20.3,11.896
-0.091,1.218,74.99250074992501,20.23,11.848
-0.097,1.218,74.99250074992501,20.22,11.814
-0.071,1.218,74.99250074992501,20.17,11.798
-0.014,1.218,74.99250074992501,20.17,11.786
0.235,1.218,74.99250074992501,20.12,11.782
-0.053,1.218,74.99250074992501,20.1,11.782
0.042,1.218,74.99250074992501,19.95,11.784
0.288,1.218,79.99200079992,19.9,11.784
0.425,1.218,79.99200079992,19.99,11.782
-0.019,1.218,79.99200079992,19.94,11.784
-0.072,1.218,79.99200079992,19.94,11.796
-0.09,1.218,79.99200079992,19.71,11.774
-0.119,1.218,79.99200079992,19.41,11.73
-0.137,1.218,79.99200079992,19.25,11.706
-0.136,1.218,79.99200079992,19.13,11.694
-0.172,1.218,79.99200079992,19.12,11.692
0.306,1.218,79.99200079992,19.06,11.718
-0.24,1.218,79.99200079992,19.03,11.776
-0.107,1.218,79.99200079992,19.0,11.854
0.071,1.217,74.99250074992501,18.97,11.958
0.351,1.217,74.99250074992501,18.94,12.082
-0.066,1.218,74.99250074992501,18.91,12.216
-0.219,1.217,74.99250074992501,18.9,12.37
-0.228,1.217,74.99250074992501,18.87,12.49
-0.253,1.216,74.99250074992501,18.85,12.6
-0.26,1.217,74.99250074992501,18.84,12.696
-0.235,1.216,74.99250074992501,18.81,12.766
-0.115,1.216,74.99250074992501,18.8,12.84
0.017,1.216,74.99250074992501,18.78,12.894
-0.202,1.216,74.99250074992501,18.76,12.936
-0.082,1.216,74.99250074992501,18.75,12.984
0.186,1.216,78.99210078992101,18.73,13.034
0.302,1.216,78.99210078992101,18.72,13.058
-0.115,1.216,78.99210078992101,18.7,13.05
-0.147,1.216,78.99210078992101,18.68,13.014
-0.155,1.216,78.99210078992101,18.67,12.95
-0.158,1.216,78.99210078992101,18.66,12.888
-0.135,1.216,78.99210078992101,18.63,12.822
-0.115,1.216,78.99210078992101,18.62,12.726
0.516,1.216,78.99210078992101,18.61,12.64
-0.299,1.216,78.99210078992101,18.59,12.574
-0.029,1.216,78.99210078992101,18.58,12.492
0.114,1.216,78.99210078992101,18.57,12.41
0.452,1.216,78.99210078992101,18.56,12.336
0.218,1.216,78.99210078992101,18.55,12.284
-0.062,1.213,79.99200079992,18.53,12.248
-0.044,1.213,79.99200079992,18.52,12.194
-0.053,1.214,79.99200079992,18.51,12.1
-0.064,1.213,79.99200079992,18.5,12.032
-0.06,1.213,79.99200079992,18.5,11.98
-0.043,1.213,79.99200079992,18.47,11.92
-0.057,1.213,79.99200079992,18.47,11.876
0.438,1.213,79.99200079992,18.46,11.87
-0.11,1.213,79.99200079992,18.45,11.852
0.036,1.213,79.99200079992,18.45,11.838
0.215,1.213,79.99200079992,18.44,11.838
0.511,1.213,79.99200079992,18.42,11.824
0.115,1.213,79.99200079992,18.42,11.82
-0.064,1.213,71.99280071992801,18.41,11.816
-0.081,1.213,71.99280071992801,18.4,11.798
-0.122,1.213,71.99280071992801,18.4,11.752
-0.147,1.213,71.99280071992801,18.37,11.716
-0.164,1.213,71.99280071992801,18.37,11.7
-0.174,1.213,71.99280071992801,18.37,11.722
-0.191,1.213,71.99280071992801,18.36,11.78
0.323,1.213,71.99280071992801,18.35,11.86
-0.339,1.213,71.99280071992801,18.35,11.952
-0.143,1.213,71.99280071992801,18.34,12.066
0.02,1.213,70.992900709929,18.33,12.192
0.345,1.213,70.992900709929,18.33,12.32
-0.002,1.213,70.992900709929,18.31,12.434
-0.233,1.213,70.992900709929,18.31,12.55
-0.242,1.213,70.992900709929,18.3,12.636
-0.272,1.213,70.992900709929,18.29,12.714
-0.285,1.213,70.992900709929,18.29,12.788
-0.261,1.213,70.992900709929,18.29,12.856
-0.285,1.213,70.992900709929,18.28,12.92
0.205,1.212,70.992900709929,18.26,12.978
-0.255,1.212,70.992900709929,18.26,13.028
-0.105,1.212,70.992900709929,18.25,13.062
0.13,1.212,78.99210078992101,18.25,13.066
0.367,1.211,78.99210078992101,18.24,13.024
