ECG,EMG,foot GSR,hand GSR,HR,marker,RESP
-0.036,0.166,1.375,4.994,77.0,11.16,38.33
0.099,0.166,1.375,4.993,85.0,11.16,38.39
0.08,0.186,1.375,4.992,85.0,11.16,38.45
-0.088,0.186,1.375,4.99,85.0,11.16,38.47
-0.079,0.207,1.375,4.988,85.0,11.16,38.48
-0.076,0.186,1.372,4.987,85.0,11.16,38.42
-0.02,0.186,1.372,4.984,85.0,11.16,38.35
-0.092,0.166,1.372,4.982,85.0,11.16,38.3
0.276,0.373,1.372,4.982,85.0,11.16,38.26
-0.091,0.228,1.372,4.98,85.0,11.16,38.24
-0.071,0.145,1.372,4.979,85.0,11.16,38.2
0.0,0.186,1.372,4.977,86.0,11.17,38.18
0.144,0.124,1.372,4.975,86.0,11.16,38.15
-0.002,0.145,1.372,4.973,86.0,11.16,38.14
-0.093,0.145,1.372,4.972,86.0,11.16,38.14
-0.077,0.228,1.372,4.969,86.0,11.16,38.11
-0.082,0.145,1.371,4.968,86.0,11.16,38.03
-0.02,0.166,1.371,4.967,86.0,11.16,37.96
-0.1,0.207,1.37,4.964,86.0,11.16,37.92
0.3,0.394,1.37,4.963,86.0,11.16,37.9
-0.11,0.186,1.37,4.962,86.0,11.16,37.87
-0.074,0.145,1.37,4.96,86.0,11.16,37.83
0.002,0.145,1.37,4.958,85.0,11.16,37.78
0.143,0.166,1.37,4.957,85.0,11.16,37.75
-0.019,0.145,1.37,4.957,85.0,11.16,37.71
-0.092,0.186,1.37,4.954,85.0,11.16,37.67
-0.077,0.207,1.368,4.952,85.0,11.16,37.6
-0.084,0.228,1.367,4.951,85.0,11.16,37.49
-0.063,0.207,1.367,4.95,85.0,11.16,37.39
-0.03,0.145,1.367,4.947,85.0,11.16,37.3
-0.112,0.207,1.367,4.946,85.0,11.16,37.25
0.327,0.539,1.367,4.943,85.0,11.17,37.21
-0.086,0.228,1.367,4.942,85.0,11.17,37.17
-0.045,0.145,1.367,4.941,85.0,11.16,37.14
0.06,0.166,1.367,4.94,80.0,11.17,37.09
0.135,0.145,1.367,4.937,80.0,11.16,37.07
-0.068,0.166,1.367,4.936,80.0,11.16,37.03
-0.083,0.145,1.367,4.935,80.0,11.16,36.99
-0.074,0.186,1.366,4.932,80.0,11.16,36.9
-0.085,0.166,1.367,4.932,80.0,11.17,36.77
-0.088,0.186,1.365,4.93,80.0,11.17,36.68
-0.024,0.186,1.365,4.927,80.0,11.16,36.62
-0.078,0.228,1.365,4.927,80.0,11.16,36.58
0.196,0.331,1.365,4.926,80.0,11.17,36.54
0.041,0.29,1.365,4.923,80.0,11.17,36.52
-0.076,0.186,1.365,4.922,80.0,11.17,36.52
-0.016,0.124,1.365,4.921,73.0,11.17,36.52
0.125,0.145,1.365,4.918,73.0,11.17,36.51
0.036,0.186,1.363,4.917,73.0,11.17,36.52
-0.095,0.186,1.362,4.916,73.0,11.17,36.52
-0.083,0.207,1.362,4.913,73.0,11.17,36.49
-0.088,0.186,1.362,4.912,73.0,11.17,36.45
-0.098,0.186,1.362,4.91,73.0,11.17,36.39
-0.098,0.145,1.362,4.908,73.0,11.17,36.37
-0.03,0.186,1.362,4.907,73.0,11.17,36.37
-0.093,0.228,1.362,4.905,73.0,11.17,36.37
0.284,0.394,1.362,4.905,73.0,11.17,36.38
-0.063,0.228,1.362,4.902,73.0,11.16,36.39
-0.073,0.207,1.362,4.901,73.0,11.17,36.41
-0.004,0.186,1.362,4.9,72.0,11.17,36.42
0.137,0.166,1.362,4.897,72.0,11.17,36.43
0.012,0.186,1.361,4.896,72.0,11.16,36.44
-0.101,0.186,1.361,4.895,72.0,11.17,36.46
-0.086,0.145,1.36,4.892,72.0,11.17,36.45
-0.096,0.186,1.36,4.891,72.0,11.17,36.4
-0.104,0.166,1.36,4.89,72.0,11.17,36.39
-0.105,0.186,1.36,4.887,72.0,11.17,36.41
-0.052,0.145,1.36,4.886,72.0,11.16,36.47
-0.082,0.186,1.36,4.885,72.0,11.17,36.55
0.096,0.394,1.358,4.883,72.0,11.17,36.62
0.089,0.331,1.357,4.882,72.0,11.16,36.72
-0.085,0.207,1.357,4.88,72.0,11.16,36.84
-0.028,0.166,1.357,4.878,70.0,11.16,36.98
0.109,0.145,1.357,4.877,70.0,11.17,37.11
0.051,0.207,1.357,4.875,70.0,11.17,37.26
-0.107,0.186,1.357,4.875,70.0,11.17,37.4
-0.098,0.207,1.357,4.872,70.0,11.17,37.51
-0.101,0.186,1.357,4.871,70.0,11.16,37.59
-0.104,0.166,1.357,4.87,70.0,11.16,37.68
-0.051,0.166,1.357,4.868,70.0,11.16,37.79
-0.126,0.228,1.357,4.867,70.0,11.17,37.93
0.253,0.435,1.357,4.865,70.0,11.17,38.05
-0.127,0.228,1.355,4.862,70.0,11.17,38.15
-0.083,0.228,1.355,4.862,70.0,11.17,38.26
0.003,0.228,1.355,4.86,80.0,11.16,38.36
0.125,0.228,1.355,4.86,80.0,11.16,38.45
-0.066,0.207,1.355,4.858,80.0,11.16,38.52
-0.116,0.186,1.355,4.856,80.0,11.16,38.58
-0.101,0.166,1.355,4.855,80.0,11.17,38.59
-0.097,0.207,1.355,4.853,80.0,11.16,38.58
-0.058,0.249,1.353,4.851,80.0,11.17,38.56
-0.132,0.186,1.355,4.85,80.0,11.17,38.56
0.262,0.311,1.352,4.848,80.0,11.17,38.53
-0.118,0.228,1.352,4.848,80.0,11.17,38.48
-0.072,0.249,1.352,4.846,80.0,11.17,38.43
0.021,0.186,1.352,4.844,85.0,11.17,38.37
0.127,0.145,1.352,4.843,85.0,11.17,38.33
-0.071,0.207,1.352,4.841,85.0,11.17,38.29
-0.103,0.166,1.352,4.84,85.0,11.17,38.26
-0.087,0.166,1.352,4.838,85.0,11.17,38.2
-0.095,0.186,1.352,4.838,85.0,11.16,38.09
-0.036,0.186,1.352,4.835,85.0,11.24,38.0
-0.103,0.207,1.352,4.833,85.0,11.46,37.93
0.294,0.352,1.352,4.833,85.0,11.67,37.89
-0.096,0.228,1.352,4.83,85.0,11.61,37.86
-0.068,0.145,1.352,4.83,85.0,12.16,37.81
0.005,0.145,1.351,4.828,82.0,11.62,37.78
0.153,0.186,1.352,4.828,82.0,11.4,37.74
0.004,0.166,1.35,4.825,82.0,11.28,37.73
-0.082,0.124,1.35,4.825,82.0,11.22,37.69
-0.064,0.228,1.35,4.823,82.0,11.46,37.64
-0.066,0.228,1.35,4.821,82.0,11.51,37.52
-0.07,0.207,1.35,4.82,82.0,11.39,37.42
-0.038,0.104,1.35,4.818,82.0,11.73,37.36
-0.068,0.166,1.35,4.818,82.0,11.96,37.31
-0.002,0.207,1.35,4.816,82.0,11.99,37.28
0.36,0.456,1.35,4.814,82.0,11.96,37.24
-0.066,0.186,1.348,4.813,82.0,11.99,37.2
-0.028,0.166,1.348,4.81,82.0,11.99,37.15
0.078,0.124,1.347,4.809,73.0,11.62,37.09
0.139,0.145,1.347,4.808,73.0,11.78,37.08
-0.072,0.145,1.347,4.808,73.0,11.88,37.03
-0.088,0.207,1.347,4.805,73.0,11.73,36.97
-0.084,0.145,1.347,4.804,73.0,11.89,36.87
-0.097,0.186,1.347,4.803,73.0,11.82,36.72
-0.104,0.269,1.347,4.803,73.0,11.48,36.63
-0.101,0.124,1.347,4.8,73.0,11.46,36.57
-0.098,0.186,1.347,4.799,73.0,11.26,36.53
-0.086,0.166,1.347,4.798,73.0,11.32,36.52
-0.042,0.207,1.347,4.796,73.0,11.6,36.5
-0.11,0.186,1.347,4.795,73.0,11.43,36.5
0.338,0.394,1.347,4.793,73.0,11.28,36.49
-0.088,0.186,1.346,4.793,73.0,11.34,36.5
-0.06,0.186,1.347,4.79,73.0,11.4,36.51
0.029,0.166,1.345,4.79,61.0,11.43,36.52
0.153,0.166,1.345,4.788,61.0,11.26,36.52
-0.052,0.186,1.345,4.786,61.0,11.29,36.52
-0.102,0.207,1.345,4.785,61.0,11.22,36.52
-0.092,0.207,1.345,4.783,61.0,11.21,36.49
-0.101,0.186,1.345,4.783,61.0,11.13,36.43
-0.103,0.166,1.345,4.78,61.0,11.12,36.4
-0.096,0.145,1.345,4.779,61.0,11.11,36.39
-0.086,0.269,1.345,4.778,61.0,11.12,36.39
-0.067,0.228,1.345,4.776,61.0,11.11,36.42
-0.027,0.186,1.345,4.775,61.0,11.11,36.42
-0.09,0.228,1.342,4.773,61.0,11.11,36.42
0.367,0.518,1.345,4.772,61.0,11.11,36.43
-0.057,0.124,1.342,4.771,61.0,11.11,36.44
-0.027,0.166,1.342,4.768,61.0,11.1,36.45
0.072,0.166,1.342,4.768,62.0,11.11,36.47
0.18,0.145,1.342,4.767,62.0,11.1,36.47
-0.039,0.186,1.342,4.766,62.0,11.11,36.47
-0.077,0.145,1.342,4.763,62.0,11.11,36.49
-0.068,0.207,1.342,4.763,62.0,11.11,36.47
-0.077,0.124,1.342,4.761,62.0,11.11,36.4
-0.081,0.207,1.342,4.761,62.0,11.1,36.39
-0.081,0.186,1.341,4.758,62.0,11.1,36.4
-0.033,0.166,1.342,4.756,62.0,11.1,36.45
-0.088,0.124,1.34,4.756,62.0,11.1,36.51
0.292,0.414,1.34,4.754,62.0,11.1,36.57
-0.086,0.228,1.34,4.753,62.0,11.1,36.65
-0.073,0.166,1.34,4.751,62.0,11.1,36.74
-0.002,0.145,1.34,4.751,70.0,11.1,36.87
0.156,0.186,1.34,4.748,70.0,11.1,37.01
0.016,0.186,1.34,4.747,70.0,11.1,37.16
-0.1,0.207,1.34,4.746,70.0,11.1,37.3
-0.086,0.228,1.34,4.743,70.0,11.1,37.41
-0.088,0.145,1.34,4.742,70.0,11.1,37.48
-0.07,0.186,1.34,4.741,70.0,11.1,37.56
-0.066,0.228,1.34,4.739,70.0,11.1,37.68
-0.114,0.228,1.338,4.738,70.0,11.1,37.8
0.28,0.456,1.337,4.736,70.0,11.1,37.93
-0.085,0.249,1.337,4.734,70.0,11.1,38.01
-0.036,0.207,1.337,4.733,70.0,11.1,38.11
0.095,0.166,1.337,4.731,80.0,11.1,38.2
0.124,0.207,1.337,4.729,80.0,11.1,38.29
-0.073,0.186,1.337,4.728,80.0,11.1,38.39
-0.078,0.207,1.337,4.728,80.0,11.1,38.47
-0.071,0.145,1.337,4.726,80.0,11.1,38.49
-0.047,0.207,1.337,4.724,80.0,11.1,38.48
-0.063,0.166,1.336,4.723,80.0,11.1,38.48
-0.087,0.269,1.335,4.722,80.0,11.1,38.48
0.273,0.352,1.335,4.721,80.0,11.1,38.51
-0.08,0.207,1.335,4.719,80.0,11.1,38.53
-0.033,0.207,1.335,4.718,80.0,11.1,38.53
0.097,0.228,1.335,4.716,84.0,11.1,38.51
0.092,0.166,1.335,4.714,84.0,11.1,38.51
-0.093,0.207,1.335,4.713,84.0,11.1,38.51
-0.094,0.186,1.335,4.712,84.0,11.1,38.5
-0.088,0.166,1.335,4.711,84.0,11.1,38.42
-0.055,0.207,1.333,4.709,84.0,11.1,38.33
-0.095,0.269,1.335,4.708,84.0,11.1,38.28
-0.012,0.352,1.335,4.706,84.0,11.1,38.24
0.179,0.352,1.332,4.704,84.0,11.1,38.22
-0.094,0.145,1.332,4.703,84.0,11.1,38.19
-0.041,0.249,1.332,4.702,84.0,11.1,38.15
0.107,0.207,1.332,4.701,85.0,11.1,38.13
0.048,0.186,1.332,4.699,85.0,11.1,38.13
-0.095,0.124,1.332,4.698,85.0,11.1,38.12
-0.094,0.124,1.332,4.696,85.0,11.1,38.11
-0.093,0.145,1.332,4.696,85.0,11.1,38.04
-0.062,0.186,1.332,4.693,85.0,11.1,37.98
-0.084,0.145,1.332,4.692,85.0,11.1,37.95
-0.08,0.207,1.33,4.689,85.0,11.1,37.92
0.269,0.58,1.33,4.689,85.0,11.11,37.92
-0.084,0.186,1.33,4.688,85.0,11.1,37.89
-0.032,0.228,1.33,4.688,85.0,11.1,37.86
0.103,0.269,1.33,4.686,84.0,11.1,37.82
0.083,0.166,1.33,4.685,84.0,11.1,37.77
-0.094,0.145,1.33,4.684,84.0,11.1,37.69
-0.089,0.207,1.33,4.682,84.0,11.1,37.61
-0.084,0.145,1.33,4.681,84.0,11.1,37.46
-0.095,0.228,1.33,4.68,84.0,11.1,37.28
-0.098,0.124,1.33,4.679,84.0,11.11,37.16
-0.095,0.145,1.33,4.676,84.0,11.11,37.05
-0.048,0.186,1.33,4.676,84.0,11.11,36.97
-0.077,0.186,1.33,4.675,84.0,11.11,36.9
0.018,0.373,1.33,4.674,84.0,11.11,36.86
0.239,0.352,1.33,4.671,84.0,11.11,36.81
-0.074,0.207,1.329,4.671,84.0,11.11,36.76
-0.022,0.207,1.328,4.669,84.0,11.11,36.73
0.117,0.186,1.328,4.669,66.0,11.11,36.71
0.093,0.186,1.328,4.666,66.0,11.11,36.69
-0.086,0.145,1.328,4.666,66.0,11.11,36.67
-0.079,0.166,1.328,4.664,66.0,11.11,36.64
-0.077,0.166,1.328,4.664,66.0,11.11,36.57
-0.088,0.207,1.328,4.661,66.0,11.11,36.5
-0.09,0.186,1.328,4.66,66.0,11.11,36.47
-0.087,0.186,1.328,4.659,66.0,11.11,36.46
-0.03,0.186,1.325,4.657,66.0,11.11,36.46
-0.09,0.186,1.325,4.656,66.0,11.11,36.47
0.339,0.435,1.325,4.654,66.0,11.11,36.47
-0.078,0.228,1.325,4.652,66.0,11.11,36.49
-0.06,0.186,1.325,4.651,66.0,11.11,36.49
0.011,0.186,1.325,4.651,68.0,11.11,36.51
0.163,0.166,1.325,4.649,68.0,11.11,36.52
0.004,0.145,1.325,4.649,68.0,11.11,36.53
-0.099,0.186,1.325,4.646,68.0,11.11,36.53
-0.085,0.145,1.325,4.645,68.0,11.11,36.52
-0.09,0.166,1.325,4.644,68.0,11.11,36.49
-0.096,0.186,1.325,4.641,68.0,11.11,36.49
-0.091,0.207,1.323,4.64,68.0,11.11,36.55
-0.04,0.228,1.323,4.639,68.0,11.11,36.62
-0.105,0.166,1.323,4.637,68.0,11.11,36.73
0.303,0.414,1.324,4.636,68.0,11.11,36.83
-0.098,0.29,1.323,4.636,68.0,11.11,36.92
-0.064,0.207,1.323,4.634,68.0,11.11,37.05
0.019,0.166,1.323,4.631,72.0,11.11,37.17
0.16,0.207,1.323,4.63,72.0,11.11,37.32
-0.038,0.145,1.323,4.629,72.0,11.11,37.45
-0.109,0.207,1.323,4.627,72.0,11.11,37.59
-0.096,0.145,1.32,4.626,72.0,11.11,37.69
-0.104,0.186,1.321,4.624,72.0,11.11,37.75
-0.083,0.186,1.32,4.624,72.0,11.11,37.84
-0.082,0.207,1.32,4.621,72.0,11.11,37.94
-0.122,0.166,1.32,4.621,72.0,11.11,38.06
0.26,0.414,1.32,4.619,72.0,11.11,38.17
-0.1,0.145,1.32,4.619,72.0,11.11,38.24
-0.054,0.145,1.32,4.616,72.0,11.11,38.28
0.073,0.186,1.32,4.615,80.0,11.11,38.3
0.091,0.207,1.32,4.614,80.0,11.11,38.3
-0.104,0.186,1.32,4.611,80.0,11.11,38.28
-0.105,0.145,1.32,4.611,80.0,11.11,38.25
-0.098,0.166,1.32,4.609,80.0,11.11,38.16
-0.102,0.186,1.32,4.607,80.0,11.11,38.07
-0.059,0.166,1.32,4.606,80.0,11.11,38.0
-0.123,0.186,1.32,4.604,80.0,11.11,37.93
0.291,0.414,1.319,4.604,80.0,11.11,37.9
-0.11,0.186,1.318,4.601,80.0,11.11,37.86
-0.069,0.228,1.318,4.6,80.0,11.11,37.81
0.017,0.186,1.318,4.599,81.0,11.11,37.78
0.146,0.186,1.318,4.598,81.0,11.11,37.74
-0.054,0.207,1.318,4.597,81.0,11.11,37.7
-0.109,0.145,1.318,4.595,81.0,11.11,37.64
-0.095,0.186,1.318,4.594,81.0,11.11,37.56
-0.102,0.186,1.318,4.593,81.0,11.11,37.43
-0.106,0.207,1.318,4.592,81.0,11.11,37.32
-0.082,0.186,1.318,4.589,81.0,11.11,37.23
-0.061,0.145,1.318,4.588,81.0,11.11,37.16
-0.129,0.186,1.318,4.587,81.0,11.11,37.1
0.326,0.414,1.318,4.585,81.0,11.11,37.06
-0.099,0.145,1.315,4.584,81.0,11.11,36.98
-0.058,0.145,1.315,4.583,81.0,11.11,36.93
0.046,0.166,1.315,4.582,72.0,11.1,36.87
0.139,0.186,1.315,4.579,72.0,11.1,36.82
-0.075,0.207,1.315,4.579,72.0,11.1,36.77
-0.096,0.186,1.315,4.577,72.0,11.1,36.73
-0.083,0.207,1.315,4.575,72.0,11.11,36.66
-0.092,0.186,1.315,4.574,72.0,11.1,36.55
-0.093,0.186,1.315,4.572,72.0,11.11,36.48
-0.09,0.207,1.315,4.572,72.0,11.1,36.45
-0.033,0.145,1.315,4.569,72.0,11.11,36.44
-0.08,0.145,1.315,4.569,72.0,11.1,36.44
0.24,0.269,1.315,4.567,72.0,11.1,36.44
0.02,0.228,1.315,4.567,72.0,11.11,36.44
-0.062,0.207,1.315,4.564,72.0,11.1,36.45
0.0,0.166,1.315,4.564,68.0,11.11,36.47
0.148,0.186,1.314,4.562,68.0,11.1,36.47
0.06,0.207,1.313,4.562,68.0,11.1,36.49
-0.082,0.207,1.313,4.559,68.0,11.1,36.49
-0.068,0.228,1.313,4.559,68.0,11.1,36.48
-0.071,0.166,1.313,4.557,68.0,11.1,36.44
-0.078,0.186,1.313,4.557,68.0,11.1,36.38
-0.077,0.166,1.313,4.554,68.0,11.1,36.37
-0.059,0.166,1.313,4.554,68.0,11.1,36.37
-0.019,0.207,1.311,4.553,68.0,11.1,36.38
-0.088,0.228,1.313,4.552,68.0,11.11,36.39
0.346,0.456,1.311,4.55,68.0,11.1,36.4
-0.063,0.186,1.31,4.549,68.0,11.11,36.41
-0.035,0.145,1.31,4.547,68.0,11.1,36.42
0.056,0.207,1.31,4.547,68.0,11.11,36.45
0.169,0.186,1.31,4.547,68.0,11.11,36.5
-0.048,0.186,1.31,4.544,68.0,11.11,36.56
-0.093,0.166,1.31,4.544,68.0,11.11,36.63
-0.084,0.166,1.31,4.542,68.0,11.11,36.7
-0.097,0.166,1.31,4.542,68.0,11.1,36.73
-0.081,0.207,1.31,4.54,68.0,11.11,36.8
-0.058,0.166,1.31,4.539,68.0,11.1,36.92
-0.126,0.207,1.31,4.537,68.0,11.1,37.08
0.281,0.373,1.31,4.537,68.0,11.1,37.23
-0.097,0.207,1.31,4.534,68.0,11.1,37.37
-0.058,0.228,1.31,4.534,68.0,11.1,37.5
0.05,0.186,1.31,4.533,78.0,11.1,37.64
0.134,0.207,1.308,4.532,78.0,11.1,37.78
-0.082,0.186,1.308,4.53,78.0,11.1,37.91
-0.106,0.166,1.308,4.529,78.0,11.1,38.03
-0.096,0.207,1.308,4.528,78.0,11.1,38.08
-0.092,0.186,1.308,4.527,78.0,11.1,38.06
-0.065,0.124,1.308,4.525,78.0,11.1,38.03
-0.129,0.186,1.308,4.524,78.0,11.1,38.0
0.27,0.373,1.308,4.522,78.0,11.1,37.97
-0.104,0.186,1.305,4.522,78.0,11.1,37.96
-0.064,0.166,1.306,4.52,78.0,11.1,37.93
0.035,0.145,1.305,4.519,83.0,11.1,37.89
0.137,0.166,1.305,4.517,83.0,11.1,37.87
-0.069,0.145,1.305,4.517,83.0,11.1,37.85
-0.1,0.166,1.305,4.515,83.0,11.1,37.82
-0.084,0.145,1.305,4.514,83.0,11.18,37.77
-0.094,0.186,1.305,4.513,83.0,11.12,37.67
-0.037,0.186,1.305,4.512,83.0,11.18,37.6
-0.1,0.207,1.305,4.51,83.0,11.23,37.55
0.292,0.331,1.305,4.509,83.0,11.59,37.51
-0.083,0.166,1.305,4.507,83.0,11.73,37.5
-0.061,0.166,1.305,4.507,83.0,11.87,37.47
0.01,0.207,1.305,4.505,81.0,11.93,37.46
0.161,0.166,1.305,4.505,81.0,11.54,37.45
0.021,0.228,1.305,4.503,81.0,11.39,37.43
-0.075,0.207,1.305,4.502,81.0,11.44,37.41
-0.055,0.207,1.305,4.501,81.0,11.73,37.38
-0.056,0.207,1.305,4.5,81.0,11.85,37.28
-0.061,0.186,1.305,4.497,81.0,11.68,37.2
-0.034,0.186,1.305,4.497,81.0,11.53,37.14
-0.009,0.249,1.305,4.496,81.0,11.55,37.1
-0.074,0.186,1.305,4.495,81.0,11.45,37.08
0.366,0.435,1.305,4.493,81.0,12.22,37.05
-0.044,0.166,1.303,4.492,81.0,11.56,37.02
-0.004,0.145,1.303,4.492,81.0,11.57,36.99
0.095,0.124,1.303,4.49,81.0,11.88,36.97
0.187,0.104,1.303,4.488,81.0,11.81,36.96
-0.025,0.166,1.303,4.487,81.0,12.27,36.93
-0.047,0.145,1.303,4.487,74.0,12.31,36.92
-0.036,0.166,1.303,4.485,74.0,13.28,36.85
-0.047,0.145,1.303,4.485,74.0,14.16,36.73
-0.05,0.166,1.303,4.482,74.0,15.36,36.67
-0.048,0.145,1.303,4.482,74.0,16.16,36.62
-0.046,0.186,1.301,4.48,74.0,15.26,36.59
0.005,0.124,1.3,4.48,74.0,14.98,36.58
-0.039,0.166,1.3,4.477,74.0,15.29,36.56
0.267,0.373,1.3,4.477,74.0,15.1,36.54
0.059,0.269,1.3,4.475,74.0,14.77,36.54
-0.03,0.166,1.3,4.475,74.0,14.52,36.54
0.027,0.166,1.3,4.472,64.0,14.14,36.54
0.169,0.166,1.3,4.472,64.0,13.66,36.54
0.097,0.166,1.3,4.47,64.0,12.94,36.54
-0.06,0.124,1.3,4.47,64.0,13.21,36.54
-0.052,0.145,1.3,4.467,64.0,13.21,36.53
-0.06,0.186,1.3,4.466,64.0,13.12,36.48
-0.071,0.207,1.3,4.465,64.0,13.19,36.42
-0.074,0.228,1.3,4.465,64.0,13.16,36.41
-0.074,0.166,1.3,4.462,64.0,13.56,36.41
-0.074,0.186,1.3,4.461,64.0,13.69,36.43
-0.029,0.145,1.3,4.46,64.0,13.58,36.47
-0.083,0.186,1.3,4.46,64.0,13.39,36.51
0.325,0.497,1.298,4.458,64.0,13.31,36.58
-0.086,0.186,1.298,4.456,64.0,13.28,36.66
-0.056,0.186,1.298,4.455,64.0,13.27,36.78
0.017,0.249,1.298,4.455,63.0,13.26,36.91
0.164,0.186,1.298,4.452,63.0,13.22,37.04
-0.006,0.207,1.298,4.451,63.0,13.23,37.17
-0.104,0.207,1.298,4.45,63.0,13.21,37.3
-0.094,0.207,1.298,4.448,63.0,13.22,37.41
-0.104,0.207,1.296,4.447,63.0,13.25,37.46
-0.114,0.228,1.298,4.447,63.0,13.27,37.55
-0.073,0.186,1.295,4.446,63.0,13.26,37.67
-0.106,0.166,1.295,4.445,63.0,13.17,37.81
0.143,0.331,1.295,4.443,63.0,13.06,37.93
-0.012,0.249,1.295,4.442,63.0,12.95,38.03
-0.093,0.166,1.295,4.441,63.0,13.05,38.14
-0.036,0.186,1.295,4.44,75.0,13.03,38.23
0.114,0.166,1.295,4.438,75.0,13.49,38.3
0.038,0.186,1.295,4.436,75.0,15.6,38.35
-0.11,0.166,1.295,4.435,75.0,26.83,38.36
-0.099,0.228,1.295,4.435,75.0,35.28,38.37
-0.101,0.228,1.295,4.432,75.0,30.13,38.3
-0.099,0.145,1.295,4.432,75.0,15.83,38.21
-0.055,0.166,1.295,4.431,75.0,12.17,38.13
-0.114,0.186,1.295,4.43,75.0,12.55,38.08
0.292,0.435,1.295,4.428,75.0,11.78,38.03
-0.093,0.311,1.294,4.427,75.0,11.1,37.97
-0.053,0.186,1.294,4.426,75.0,11.27,37.91
0.043,0.166,1.293,4.426,80.0,11.06,37.83
0.166,0.186,1.293,4.425,80.0,11.11,37.79
-0.04,0.186,1.294,4.422,80.0,11.06,37.75
-0.083,0.166,1.293,4.422,80.0,10.83,37.7
-0.065,0.29,1.293,4.421,80.0,10.91,37.61
-0.07,0.145,1.293,4.42,80.0,11.09,37.47
-0.073,0.166,1.293,4.42,80.0,10.95,37.38
-0.038,0.207,1.293,4.418,80.0,10.89,37.3
-0.041,0.186,1.293,4.416,80.0,10.9,37.25
-0.05,0.228,1.293,4.415,80.0,10.91,37.2
0.32,0.477,1.291,4.415,80.0,10.9,37.14
-0.06,0.186,1.293,4.413,80.0,10.9,37.09
-0.012,0.228,1.293,4.413,80.0,10.89,37.05
0.113,0.145,1.291,4.411,73.0,10.9,37.01
0.128,0.207,1.29,4.41,73.0,10.9,36.96
-0.074,0.228,1.29,4.41,73.0,10.9,36.9
-0.073,0.207,1.29,4.408,73.0,10.9,36.83
-0.068,0.207,1.29,4.408,73.0,10.9,36.71
-0.078,0.269,1.29,4.408,73.0,10.9,36.57
-0.08,0.166,1.29,4.405,73.0,10.9,36.5
-0.076,0.186,1.29,4.405,73.0,10.9,36.45
-0.034,0.166,1.29,4.405,73.0,10.9,36.44
-0.068,0.207,1.29,4.404,73.0,10.9,36.42
0.31,0.373,1.29,4.403,73.0,10.9,36.42
-0.017,0.249,1.29,4.403,73.0,10.9,36.42
-0.049,0.269,1.29,4.4,73.0,10.9,36.42
0.009,0.166,1.29,4.4,67.0,10.9,36.43
0.158,0.186,1.29,4.399,67.0,10.9,36.44
0.054,0.145,1.29,4.398,67.0,10.9,36.44
-0.085,0.166,1.29,4.398,67.0,10.9,36.44
-0.072,0.186,1.29,4.395,67.0,10.9,36.43
-0.075,0.145,1.29,4.395,67.0,10.9,36.39
-0.081,0.124,1.29,4.395,67.0,10.9,36.35
-0.081,0.145,1.288,4.393,67.0,10.9,36.33
-0.077,0.166,1.288,4.391,67.0,10.9,36.32
-0.068,0.166,1.288,4.39,67.0,10.9,36.34
-0.027,0.186,1.288,4.389,67.0,10.9,36.35
-0.093,0.166,1.288,4.388,67.0,10.9,36.36
0.362,0.477,1.288,4.388,67.0,10.9,36.37
-0.067,0.145,1.288,4.385,67.0,10.9,36.37
-0.035,0.166,1.288,4.385,67.0,10.9,36.39
0.06,0.186,1.288,4.383,64.0,10.9,36.41
0.169,0.145,1.288,4.383,64.0,10.9,36.42
-0.056,0.166,1.286,4.38,64.0,10.9,36.43
-0.101,0.249,1.285,4.38,64.0,10.9,36.44
-0.093,0.186,1.285,4.378,64.0,10.9,36.42
-0.108,0.207,1.286,4.378,64.0,10.9,36.39
-0.112,0.166,1.285,4.375,64.0,10.9,36.42
-0.113,0.186,1.285,4.375,64.0,10.9,36.47
-0.1,0.124,1.285,4.374,64.0,10.89,36.56
-0.083,0.186,1.285,4.373,64.0,10.9,36.66
-0.126,0.228,1.285,4.371,64.0,10.9,36.76
0.282,0.414,1.285,4.37,64.0,10.9,36.87
-0.106,0.166,1.285,4.369,64.0,10.9,36.98
-0.063,0.166,1.285,4.368,64.0,10.9,37.09
0.06,0.186,1.285,4.366,67.0,10.9,37.21
0.108,0.269,1.285,4.366,67.0,10.9,37.37
-0.112,0.186,1.285,4.365,67.0,10.9,37.5
-0.125,0.166,1.285,4.363,67.0,10.9,37.61
-0.115,0.207,1.285,4.363,67.0,10.9,37.67
-0.124,0.166,1.285,4.363,67.0,10.9,37.72
-0.088,0.207,1.284,4.36,67.0,10.9,37.8
-0.121,0.207,1.283,4.36,67.0,10.9,37.89
0.211,0.414,1.283,4.358,67.0,10.9,38.0
-0.09,0.29,1.283,4.358,67.0,10.9,38.09
-0.1,0.166,1.283,4.355,67.0,10.9,38.14
-0.031,0.228,1.283,4.355,80.0,10.89,38.21
0.126,0.186,1.283,4.354,80.0,10.89,38.27
0.005,0.207,1.283,4.353,80.0,10.9,38.32
-0.108,0.186,1.283,4.351,80.0,10.9,38.35
-0.104,0.166,1.281,4.35,80.0,10.9,38.35
-0.106,0.166,1.28,4.35,80.0,10.89,38.31
-0.096,0.186,1.28,4.349,80.0,10.9,38.26
-0.091,0.228,1.28,4.348,80.0,10.9,38.23
-0.122,0.207,1.28,4.348,80.0,10.89,38.23
0.271,0.394,1.28,4.348,80.0,10.9,38.23
-0.102,0.166,1.28,4.346,80.0,10.9,38.2
-0.055,0.207,1.28,4.345,80.0,10.9,38.18
0.077,0.166,1.28,4.344,81.0,10.9,38.16
0.099,0.207,1.28,4.343,81.0,10.89,38.16
-0.099,0.269,1.28,4.343,81.0,10.89,38.15
-0.104,0.186,1.28,4.341,81.0,10.9,38.14
-0.092,0.228,1.28,4.34,81.0,10.89,38.07
-0.103,0.186,1.28,4.339,81.0,10.89,38.0
-0.079,0.249,1.28,4.338,81.0,10.89,37.95
-0.075,0.166,1.28,4.338,81.0,10.89,37.89
-0.085,0.166,1.28,4.335,81.0,10.89,37.88
0.286,0.435,1.28,4.335,81.0,10.89,37.86
-0.042,0.186,1.28,4.334,81.0,10.89,37.85
-0.013,0.228,1.28,4.333,81.0,10.89,37.81
0.104,0.186,1.28,4.333,78.0,10.89,37.79
0.114,0.186,1.28,4.331,78.0,10.89,37.78
-0.084,0.166,1.28,4.331,78.0,10.89,37.76
-0.089,0.166,1.278,4.328,78.0,10.89,37.65
-0.078,0.186,1.278,4.328,78.0,10.89,37.64
-0.089,0.166,1.278,4.327,78.0,10.89,37.55
-0.089,0.207,1.278,4.326,78.0,10.89,37.49
-0.085,0.186,1.278,4.326,78.0,10.89,37.46
-0.082,0.145,1.278,4.323,78.0,10.89,37.44
-0.04,0.186,1.278,4.322,78.0,10.88,37.43
-0.081,0.29,1.278,4.321,78.0,10.88,37.39
0.357,0.456,1.278,4.321,78.0,10.89,37.36
-0.071,0.269,1.275,4.318,78.0,10.89,37.37
-0.04,0.166,1.278,4.318,78.0,10.89,37.37
0.035,0.228,1.275,4.317,64.0,10.89,37.36
0.194,0.228,1.276,4.316,64.0,10.89,37.35
0.017,0.145,1.275,4.316,64.0,10.89,37.31
-0.076,0.228,1.275,4.314,64.0,10.88,37.3
-0.064,0.145,1.275,4.313,64.0,10.89,37.28
-0.069,0.207,1.275,4.311,64.0,10.88,37.22
-0.078,0.166,1.275,4.309,64.0,10.88,37.19
-0.078,0.186,1.275,4.308,64.0,10.88,37.16
-0.077,0.186,1.275,4.307,64.0,10.88,37.14
-0.076,0.228,1.275,4.306,64.0,10.88,37.12
-0.069,0.207,1.275,4.304,64.0,10.88,37.09
-0.03,0.207,1.275,4.303,64.0,10.88,37.04
-0.091,0.207,1.275,4.301,64.0,10.88,36.98
0.372,0.456,1.275,4.301,64.0,10.88,36.98
-0.063,0.145,1.275,4.301,64.0,10.88,36.93
-0.031,0.186,1.275,4.299,64.0,10.89,36.88
0.067,0.145,1.275,4.298,59.0,10.88,36.82
0.19,0.186,1.275,4.298,59.0,10.88,36.77
-0.037,0.145,1.275,4.296,59.0,10.88,36.71
-0.084,0.166,1.273,4.294,59.0,10.88,36.66
-0.07,0.145,1.273,4.293,59.0,10.88,36.6
-0.077,0.207,1.273,4.292,59.0,10.88,36.49
-0.081,0.228,1.273,4.291,59.0,10.88,36.43
-0.08,0.166,1.273,4.291,59.0,10.89,36.41
-0.078,0.207,1.273,4.288,59.0,10.88,36.39
-0.07,0.166,1.273,4.288,59.0,10.88,36.41
-0.02,0.124,1.273,4.287,59.0,10.88,36.39
-0.081,0.207,1.273,4.286,59.0,10.88,36.4
0.357,0.518,1.273,4.284,59.0,10.88,36.42
-0.06,0.166,1.273,4.283,59.0,10.88,36.42
-0.033,0.145,1.273,4.282,59.0,10.88,36.43
0.049,0.145,1.271,4.281,60.0,10.88,36.44
0.2,0.186,1.273,4.279,60.0,10.88,36.45
-0.007,0.186,1.27,4.278,60.0,10.88,36.46
-0.089,0.269,1.27,4.278,60.0,10.88,36.46
-0.084,0.207,1.27,4.277,60.0,10.88,36.43
-0.086,0.186,1.27,4.276,60.0,10.88,36.39
-0.092,0.207,1.27,4.276,60.0,10.88,36.37
-0.091,0.166,1.27,4.273,60.0,10.88,36.38
-0.086,0.186,1.27,4.272,60.0,10.88,36.4
-0.04,0.186,1.27,4.269,60.0,10.88,36.48
-0.107,0.186,1.27,4.271,60.0,10.88,36.48
0.313,0.435,1.27,4.269,60.0,10.88,36.55
-0.088,0.207,1.27,4.268,60.0,10.88,36.62
-0.061,0.166,1.27,4.266,60.0,10.88,36.71
0.028,0.228,1.27,4.266,67.0,10.88,36.79
0.179,0.207,1.27,4.266,67.0,10.88,36.89
-0.033,0.207,1.27,4.263,67.0,10.88,36.98
-0.108,0.207,1.27,4.263,67.0,10.88,37.05
-0.094,0.186,1.269,4.261,67.0,10.88,37.11
-0.1,0.249,1.27,4.259,67.0,10.88,37.14
-0.106,0.186,1.269,4.258,67.0,10.88,37.2
-0.051,0.186,1.269,4.258,67.0,10.88,37.29
-0.104,0.186,1.268,4.256,67.0,10.88,37.42
0.277,0.373,1.268,4.256,67.0,10.88,37.54
-0.1,0.186,1.268,4.254,67.0,10.88,37.63
-0.071,0.207,1.268,4.253,67.0,10.88,37.77
0.001,0.207,1.268,4.251,75.0,10.88,37.89
0.165,0.228,1.268,4.251,75.0,10.88,38.02
0.019,0.186,1.268,4.251,75.0,10.88,38.12
-0.1,0.145,1.268,4.248,75.0,10.88,38.22
-0.085,0.186,1.265,4.248,75.0,10.88,38.29
-0.088,0.207,1.265,4.246,75.0,10.88,38.3
-0.045,0.186,1.265,4.246,75.0,10.88,38.32
-0.101,0.186,1.265,4.244,75.0,10.88,38.34
0.241,0.373,1.265,4.244,75.0,10.88,38.36
-0.065,0.249,1.265,4.242,75.0,10.88,38.35
-0.075,0.145,1.265,4.241,75.0,10.88,38.3
-0.01,0.228,1.265,4.239,83.0,10.88,38.27
0.15,0.207,1.265,4.239,83.0,10.88,38.25
0.032,0.145,1.265,4.239,83.0,10.88,38.23
-0.097,0.166,1.265,4.236,83.0,10.88,38.21
-0.083,0.186,1.265,4.235,83.0,10.88,38.17
-0.084,0.124,1.265,4.234,83.0,10.88,38.07
-0.068,0.166,1.265,4.232,83.0,10.88,37.99
-0.054,0.166,1.265,4.231,83.0,10.88,37.91
-0.117,0.186,1.265,4.231,83.0,10.88,37.86
0.329,0.373,1.265,4.229,83.0,10.88,37.83
-0.082,0.145,1.265,4.229,83.0,10.88,37.78
-0.04,0.166,1.265,4.226,83.0,10.88,37.73
0.071,0.166,1.265,4.226,80.0,10.88,37.7
0.16,0.186,1.265,4.225,80.0,10.88,37.67
-0.058,0.228,1.263,4.224,80.0,10.88,37.62
-0.081,0.166,1.263,4.221,80.0,10.88,37.59
-0.069,0.166,1.263,4.221,80.0,10.88,37.51
-0.079,0.207,1.263,4.22,80.0,10.88,37.38
-0.082,0.166,1.263,4.219,80.0,10.88,37.3
-0.077,0.166,1.263,4.219,80.0,10.88,37.23
-0.015,0.186,1.263,4.216,80.0,10.88,37.2
-0.085,0.228,1.263,4.216,80.0,10.88,37.17
0.351,0.477,1.263,4.216,80.0,10.88,37.12
-0.077,0.186,1.263,4.215,80.0,10.88,37.06
-0.046,0.166,1.263,4.214,80.0,10.88,37.01
0.024,0.186,1.261,4.214,69.0,10.88,36.96
0.185,0.207,1.26,4.212,69.0,10.88,36.9
0.029,0.228,1.26,4.211,69.0,10.88,36.87
-0.074,0.145,1.26,4.211,69.0,10.88,36.82
-0.058,0.166,1.26,4.211,69.0,10.88,36.75
-0.063,0.145,1.26,4.21,69.0,10.88,36.63
-0.068,0.145,1.26,4.209,69.0,10.88,36.54
-0.065,0.186,1.26,4.209,69.0,10.88,36.49
-0.06,0.207,1.26,4.206,69.0,10.88,36.46
-0.051,0.249,1.26,4.206,69.0,10.88,36.46
0.0,0.207,1.26,4.204,69.0,10.88,36.45
-0.063,0.249,1.26,4.204,69.0,10.88,36.44
0.378,0.497,1.26,4.204,69.0,10.88,36.44
-0.042,0.249,1.26,4.204,69.0,10.88,36.45
-0.016,0.186,1.26,4.204,69.0,10.88,36.46
0.065,0.166,1.26,4.204,69.0,10.88,36.47
0.216,0.145,1.26,4.201,69.0,10.88,36.47
0.026,0.166,1.258,4.201,69.0,10.87,36.47
-0.053,0.166,1.258,4.199,62.0,10.87,36.47
-0.038,0.166,1.258,4.199,62.0,10.87,36.44
-0.052,0.186,1.258,4.199,62.0,10.87,36.38
-0.056,0.186,1.258,4.196,62.0,10.87,36.35
-0.055,0.207,1.258,4.196,62.0,10.87,36.32
-0.024,0.145,1.258,4.195,62.0,10.87,36.32
-0.028,0.166,1.258,4.194,62.0,10.87,36.35
-0.045,0.166,1.258,4.191,62.0,10.87,36.38
0.339,0.414,1.258,4.191,62.0,10.87,36.38
-0.052,0.166,1.255,4.19,62.0,10.87,36.42
-0.007,0.166,1.258,4.189,62.0,10.87,36.48
0.119,0.249,1.256,4.189,68.0,10.87,36.56
0.156,0.145,1.256,4.186,68.0,10.87,36.67
-0.065,0.207,1.255,4.186,68.0,10.87,36.77
-0.074,0.186,1.255,4.185,68.0,10.87,36.85
-0.068,0.166,1.255,4.184,68.0,10.87,36.91
-0.081,0.166,1.255,4.184,68.0,10.87,36.95
-0.036,0.166,1.255,4.181,68.0,10.87,37.05
-0.077,0.145,1.255,4.18,68.0,10.87,37.16
0.131,0.331,1.255,4.179,68.0,10.87,37.31
0.072,0.228,1.255,4.179,68.0,10.87,37.41
-0.064,0.249,1.255,4.177,68.0,10.87,37.51
-0.006,0.207,1.255,4.176,78.0,10.87,37.61
0.149,0.186,1.255,4.175,78.0,10.87,37.74
0.085,0.249,1.255,4.174,78.0,10.87,37.88
-0.08,0.207,1.255,4.174,78.0,10.87,37.99
-0.07,0.228,1.254,4.172,78.0,10.87,38.08
-0.069,0.228,1.254,4.171,78.0,10.87,38.09
-0.034,0.186,1.254,4.17,78.0,10.87,38.08
-0.068,0.249,1.253,4.169,78.0,10.87,38.07
-0.001,0.228,1.253,4.169,78.0,10.87,38.07
0.215,0.249,1.253,4.166,78.0,10.85,38.05
-0.066,0.207,1.253,4.166,78.0,10.87,38.02
-0.012,0.186,1.253,4.164,78.0,10.87,37.98
0.132,0.145,1.253,4.164,83.0,10.87,37.96
0.111,0.228,1.253,4.162,83.0,10.85,37.93
-0.068,0.124,1.253,4.161,83.0,10.87,37.92
-0.061,0.186,1.253,4.161,83.0,10.85,37.9
-0.054,0.207,1.253,4.159,83.0,10.85,37.82
-0.059,0.166,1.253,4.159,83.0,10.87,37.74
0.002,0.166,1.253,4.157,83.0,10.85,37.67
-0.064,0.166,1.253,4.156,83.0,10.87,37.6
0.356,0.435,1.253,4.155,83.0,10.85,37.56
-0.06,0.269,1.251,4.154,83.0,10.85,37.5
-0.029,0.166,1.253,4.154,83.0,10.85,37.44
0.043,0.124,1.25,4.153,80.0,10.85,37.39
0.198,0.228,1.253,4.152,80.0,10.85,37.35
0.043,0.186,1.25,4.152,80.0,10.85,37.31
-0.056,0.186,1.251,4.149,80.0,10.85,37.25
-0.044,0.166,1.25,4.149,80.0,10.85,37.18
-0.051,0.186,1.25,4.148,80.0,10.85,37.05
-0.057,0.166,1.25,4.147,80.0,10.85,36.94
-0.034,0.228,1.25,4.145,80.0,10.85,36.85
-0.004,0.186,1.25,4.144,80.0,10.85,36.8
-0.079,0.186,1.25,4.144,80.0,10.85,36.77
0.373,0.435,1.25,4.144,80.0,10.85,36.72
-0.056,0.186,1.25,4.142,80.0,10.85,36.67
-0.019,0.145,1.25,4.142,80.0,10.85,36.63
0.08,0.186,1.25,4.14,72.0,10.85,36.6
0.197,0.166,1.25,4.139,72.0,10.85,36.58
-0.02,0.166,1.249,4.139,72.0,10.85,36.57
-0.056,0.186,1.248,4.138,72.0,10.85,36.54
-0.049,0.228,1.248,4.137,72.0,10.85,36.51
-0.065,0.207,1.248,4.135,72.0,10.85,36.41
-0.073,0.186,1.248,4.134,72.0,10.85,36.36
-0.076,0.124,1.248,4.134,72.0,10.85,36.35
-0.052,0.186,1.248,4.132,72.0,10.85,36.35
-0.034,0.145,1.248,4.132,72.0,10.85,36.36
-0.111,0.166,1.248,4.132,72.0,10.85,36.36
0.36,0.559,1.248,4.129,72.0,10.85,36.37
-0.081,0.186,1.246,4.129,72.0,10.85,36.37
-0.041,0.166,1.248,4.127,72.0,10.85,36.38
0.066,0.145,1.246,4.127,67.0,10.85,36.39
0.162,0.186,1.245,4.124,67.0,10.85,36.41
-0.062,0.186,1.245,4.124,67.0,10.85,36.42
-0.09,0.186,1.245,4.124,67.0,10.85,36.42
-0.088,0.166,1.245,4.122,67.0,10.85,36.39
-0.102,0.207,1.245,4.122,67.0,10.85,36.36
-0.109,0.249,1.245,4.122,67.0,10.85,36.36
-0.084,0.207,1.245,4.119,67.0,10.85,36.4
-0.089,0.207,1.245,4.119,67.0,10.85,36.47
-0.142,0.186,1.245,4.118,67.0,10.85,36.55
0.299,0.456,1.245,4.117,67.0,10.85,36.62
-0.112,0.228,1.245,4.117,67.0,10.85,36.72
-0.067,0.207,1.245,4.114,67.0,10.85,36.93
0.046,0.186,1.245,4.114,71.0,10.85,36.95
0.13,0.228,1.245,4.114,71.0,10.85,37.08
-0.091,0.186,1.245,4.112,71.0,10.85,37.21
-0.114,0.207,1.245,4.11,71.0,10.85,37.33
-0.103,0.249,1.245,4.109,71.0,10.85,37.41
-0.109,0.207,1.245,4.109,71.0,10.85,37.46
-0.056,0.249,1.245,4.108,71.0,10.85,37.55
-0.131,0.166,1.245,4.107,71.0,10.85,37.66
0.26,0.394,1.244,4.107,71.0,10.85,37.79
-0.133,0.228,1.243,4.105,71.0,10.85,37.91
-0.093,0.207,1.243,4.104,71.0,10.85,38.02
-0.011,0.249,1.243,4.104,82.0,10.85,38.13
0.137,0.207,1.243,4.102,82.0,10.85,38.23
-0.041,0.166,1.243,4.102,82.0,10.85,38.33
-0.12,0.207,1.243,4.102,82.0,10.85,38.39
-0.103,0.145,1.243,4.1,82.0,10.85,38.42
-0.106,0.145,1.243,4.099,82.0,10.85,38.39
-0.055,0.166,1.243,4.098,82.0,10.85,38.37
-0.133,0.186,1.243,4.097,82.0,10.85,38.36
0.271,0.373,1.243,4.097,82.0,10.84,38.36
-0.135,0.207,1.243,4.094,82.0,10.84,38.36
-0.089,0.269,1.243,4.094,82.0,10.85,38.35
-0.009,0.186,1.243,4.093,84.0,10.85,38.33
0.137,0.228,1.243,4.092,84.0,10.85,38.3
-0.039,0.166,1.243,4.092,84.0,10.85,38.28
-0.11,0.207,1.243,4.092,84.0,10.85,38.25
-0.092,0.166,1.243,4.089,84.0,10.85,38.2
-0.101,0.207,1.243,4.089,84.0,10.84,38.11
-0.063,0.186,1.243,4.088,84.0,10.84,38.03
-0.077,0.186,1.241,4.087,84.0,10.84,37.95
-0.081,0.228,1.242,4.087,84.0,10.84,37.9
0.272,0.373,1.241,4.085,84.0,10.84,37.86
-0.091,0.186,1.242,4.084,84.0,10.84,37.81
-0.037,0.166,1.242,4.084,84.0,10.84,37.79
0.096,0.166,1.241,4.082,80.0,10.84,37.76
0.106,0.186,1.241,4.082,80.0,10.84,37.74
-0.084,0.186,1.241,4.082,80.0,10.84,37.7
-0.084,0.166,1.241,4.08,80.0,10.84,37.66
-0.078,0.166,1.241,4.079,80.0,10.84,37.57
-0.088,0.166,1.241,4.077,80.0,10.84,37.44
-0.09,0.207,1.241,4.077,80.0,10.84,37.36
-0.084,0.207,1.241,4.077,80.0,10.84,37.29
-0.079,0.186,1.241,4.074,80.0,10.84,37.24
-0.031,0.249,1.241,4.074,80.0,10.83,37.2
-0.069,0.207,1.241,4.074,80.0,10.84,37.15
0.151,0.435,1.241,4.073,80.0,10.84,37.1
0.123,0.331,1.241,4.072,80.0,10.83,37.05
-0.059,0.249,1.241,4.072,80.0,10.84,36.98
-0.004,0.124,1.241,4.07,62.0,10.83,36.94
0.139,0.166,1.241,4.069,62.0,10.83,36.9
0.115,0.207,1.241,4.068,62.0,10.83,36.87
-0.065,0.186,1.241,4.068,62.0,10.83,36.81
-0.057,0.166,1.241,4.067,62.0,10.84,36.74
-0.058,0.186,1.241,4.066,62.0,10.83,36.61
-0.066,0.186,1.241,4.065,62.0,10.83,36.51
-0.066,0.145,1.241,4.065,62.0,10.83,36.45
-0.061,0.207,1.241,4.062,62.0,10.83,36.42
-0.057,0.207,1.241,4.062,62.0,10.83,36.42
-0.029,0.186,1.241,4.062,62.0,10.83,36.41
-0.022,0.166,1.241,4.061,62.0,10.83,36.4
-0.03,0.228,1.239,4.06,62.0,10.83,36.41
0.366,0.394,1.241,4.058,62.0,10.83,36.42
-0.037,0.145,1.241,4.057,62.0,10.83,36.42
0.007,0.207,1.239,4.057,62.0,10.83,36.43
0.129,0.186,1.241,4.056,61.0,10.83,36.44
0.174,0.145,1.238,4.055,61.0,10.83,36.44
-0.046,0.207,1.238,4.055,61.0,10.83,36.44
-0.057,0.166,1.238,4.053,61.0,10.83,36.44
-0.058,0.124,1.238,4.052,61.0,10.83,36.4
-0.074,0.186,1.238,4.052,61.0,10.83,36.36
-0.079,0.186,1.238,4.052,61.0,10.83,36.36
-0.083,0.228,1.238,4.05,61.0,10.83,36.41
-0.088,0.186,1.238,4.05,61.0,10.83,36.48
-0.059,0.249,1.238,4.048,61.0,10.83,36.56
-0.086,0.166,1.238,4.047,61.0,10.83,36.65
0.106,0.352,1.238,4.047,61.0,10.83,36.74
0.076,0.269,1.237,4.046,61.0,10.83,36.86
-0.098,0.186,1.237,4.046,61.0,10.83,36.99
-0.046,0.249,1.236,4.045,62.0,10.83,37.12
0.097,0.166,1.236,4.045,62.0,10.83,37.25
0.069,0.186,1.237,4.042,62.0,10.83,37.39
-0.124,0.228,1.236,4.042,62.0,10.83,37.52
-0.127,0.269,1.236,4.042,62.0,10.83,37.62
-0.129,0.166,1.236,4.041,62.0,10.83,37.67
-0.14,0.228,1.236,4.04,62.0,10.83,37.73
-0.096,0.207,1.236,4.04,62.0,10.83,37.84
-0.135,0.249,1.236,4.04,62.0,10.83,37.95
0.134,0.394,1.236,4.038,62.0,10.83,38.07
-0.05,0.249,1.233,4.037,62.0,10.83,38.16
-0.121,0.166,1.233,4.037,62.0,10.83,38.22
-0.061,0.207,1.234,4.036,78.0,10.83,38.27
0.091,0.166,1.233,4.035,78.0,10.83,38.3
0.014,0.207,1.233,4.035,78.0,10.83,38.34
-0.144,0.166,1.233,4.033,78.0,10.83,38.35
-0.132,0.166,1.233,4.032,78.0,10.83,38.33
-0.13,0.249,1.233,4.032,78.0,10.83,38.25
-0.11,0.124,1.233,4.032,78.0,10.83,38.16
-0.113,0.207,1.233,4.032,78.0,10.83,38.09
-0.14,0.249,1.233,4.03,78.0,10.83,38.04
0.253,0.435,1.233,4.03,78.0,10.83,38.02
-0.118,0.207,1.233,4.027,78.0,10.83,37.98
-0.067,0.207,1.233,4.027,78.0,10.83,37.94
0.066,0.186,1.233,4.026,81.0,10.83,37.9
0.098,0.166,1.233,4.025,81.0,10.83,37.87
-0.107,0.207,1.233,4.025,81.0,10.83,37.84
-0.111,0.166,1.233,4.023,81.0,10.83,37.79
-0.096,0.166,1.233,4.022,81.0,10.83,37.68
-0.103,0.124,1.233,4.02,81.0,10.83,37.56
-0.069,0.166,1.233,4.02,81.0,10.83,37.47
-0.071,0.186,1.233,4.018,81.0,10.83,37.39
-0.107,0.228,1.233,4.017,81.0,10.83,37.34
0.324,0.456,1.233,4.017,81.0,10.83,37.3
-0.085,0.228,1.233,4.016,81.0,10.83,37.23
-0.039,0.228,1.233,4.015,81.0,10.83,37.17
0.086,0.166,1.233,4.015,77.0,10.83,37.12
0.129,0.145,1.233,4.015,77.0,10.83,37.08
-0.085,0.145,1.233,4.012,77.0,10.83,37.02
-0.092,0.186,1.232,4.012,77.0,10.83,36.96
-0.082,0.166,1.233,4.01,77.0,10.83,36.84
-0.092,0.207,1.233,4.01,77.0,10.83,36.71
-0.093,0.166,1.232,4.01,77.0,10.82,36.62
-0.09,0.311,1.231,4.01,77.0,10.82,36.56
-0.085,0.186,1.231,4.007,77.0,10.83,36.53
-0.042,0.186,1.233,4.007,77.0,10.83,36.51
-0.069,0.269,1.231,4.005,77.0,10.83,36.49
0.193,0.394,1.231,4.005,77.0,10.83,36.48
0.091,0.352,1.231,4.002,77.0,10.82,36.47
-0.057,0.186,1.231,4.002,77.0,10.82,36.47
0.0,0.145,1.231,4.002,63.0,10.82,36.48
0.148,0.186,1.231,4.001,63.0,10.82,36.48
0.108,0.186,1.231,4.0,63.0,10.83,36.49
-0.069,0.166,1.231,4.0,63.0,10.82,36.48
-0.06,0.145,1.231,3.997,63.0,10.82,36.47
-0.059,0.207,1.231,3.997,63.0,10.82,36.42
-0.066,0.166,1.231,3.997,63.0,10.82,36.37
-0.065,0.29,1.231,3.997,63.0,10.82,36.35
-0.062,0.207,1.229,3.995,63.0,10.82,36.35
-0.058,0.207,1.231,3.995,63.0,10.82,36.35
-0.013,0.186,1.228,3.993,63.0,10.82,36.36
-0.053,0.166,1.228,3.992,63.0,10.82,36.37
0.372,0.414,1.228,3.992,63.0,10.82,36.37
-0.041,0.207,1.228,3.991,63.0,10.82,36.39
-0.027,0.186,1.228,3.99,63.0,10.82,36.41
0.033,0.207,1.228,3.99,63.0,10.82,36.42
0.19,0.166,1.228,3.987,63.0,10.82,36.43
0.058,0.207,1.228,3.987,63.0,10.82,36.44
-0.075,0.207,1.228,3.987,63.0,10.82,36.45
-0.065,0.207,1.228,3.987,63.0,10.82,36.47
-0.073,0.186,1.228,3.986,63.0,10.82,36.45
-0.084,0.186,1.228,3.985,63.0,10.82,36.48
-0.086,0.186,1.228,3.985,63.0,10.82,36.53
-0.045,0.207,1.228,3.983,63.0,10.82,36.63
0.207,0.352,1.228,3.982,63.0,10.82,36.74
0.311,0.456,1.228,3.982,63.0,10.82,36.86
0.02,0.331,1.228,3.982,63.0,10.82,36.99
-0.067,0.186,1.228,3.98,75.0,10.82,37.1
-0.007,0.207,1.228,3.98,75.0,10.82,37.23
0.147,0.29,1.228,3.978,75.0,10.82,37.5
0.085,0.186,1.228,3.978,75.0,10.82,37.51
-0.085,0.186,1.227,3.978,75.0,10.81,37.63
-0.079,0.186,1.227,3.978,75.0,10.82,37.74
-0.079,0.207,1.228,3.975,75.0,10.82,37.8
-0.068,0.186,1.226,3.975,75.0,10.82,37.85
-0.049,0.145,1.226,3.975,75.0,10.82,37.97
-0.11,0.186,1.226,3.974,75.0,10.81,38.1
0.295,0.331,1.226,3.973,75.0,10.82,38.2
-0.081,0.166,1.226,3.973,75.0,10.81,38.27
-0.041,0.166,1.226,3.97,75.0,10.81,38.34
0.07,0.207,1.226,3.97,75.0,10.82,38.43
0.157,0.207,1.226,3.97,75.0,10.81,38.51
-0.06,0.145,1.226,3.968,75.0,10.81,38.58
-0.085,0.124,1.224,3.968,75.0,10.81,38.62
-0.072,0.228,1.223,3.968,75.0,10.81,38.61
-0.061,0.166,1.223,3.965,75.0,10.81,38.55
-0.057,0.145,1.223,3.965,75.0,10.81,38.5
-0.104,0.186,1.223,3.965,75.0,10.81,38.45
0.314,0.331,1.223,3.963,75.0,10.81,38.41
-0.074,0.207,1.223,3.963,75.0,10.81,38.37
-0.029,0.186,1.223,3.96,75.0,10.81,38.32
0.093,0.186,1.223,3.96,85.0,10.81,38.26
0.149,0.249,1.223,3.96,85.0,10.81,38.22
-0.061,0.228,1.223,3.96,85.0,10.81,38.18
-0.074,0.186,1.223,3.958,85.0,10.81,38.15
-0.06,0.207,1.223,3.959,85.0,10.81,38.06
-0.057,0.207,1.223,3.958,85.0,10.81,37.95
-0.022,0.207,1.223,3.958,85.0,10.81,37.86
-0.081,0.166,1.223,3.956,85.0,10.81,37.8
0.347,0.435,1.223,3.955,85.0,10.81,37.76
-0.058,0.207,1.223,3.955,85.0,10.81,37.73
-0.024,0.186,1.223,3.954,85.0,10.81,37.68
0.071,0.166,1.223,3.953,82.0,10.81,37.64
0.199,0.207,1.223,3.951,82.0,10.81,37.61
-0.019,0.186,1.223,3.95,82.0,10.81,37.58
-0.064,0.228,1.222,3.95,82.0,10.81,37.54
-0.052,0.166,1.222,3.95,82.0,10.81,37.45
-0.059,0.166,1.223,3.95,82.0,10.81,37.33
-0.065,0.145,1.221,3.948,82.0,10.81,37.22
-0.016,0.145,1.223,3.948,82.0,10.81,37.15
-0.064,0.186,1.223,3.948,82.0,10.81,37.1
0.339,0.414,1.223,3.948,82.0,10.81,37.08
-0.04,0.249,1.223,3.945,82.0,10.81,37.03
-0.042,0.145,1.222,3.945,82.0,10.81,36.98
0.02,0.207,1.221,3.945,75.0,10.81,36.93
0.18,0.186,1.221,3.944,75.0,10.81,36.89
0.053,0.166,1.222,3.943,75.0,10.81,36.84
-0.07,0.207,1.221,3.943,75.0,10.81,36.79
-0.056,0.145,1.221,3.943,75.0,10.81,36.72
-0.057,0.207,1.221,3.943,75.0,10.81,36.59
-0.065,0.166,1.221,3.94,75.0,10.81,36.48
-0.064,0.166,1.221,3.94,75.0,10.81,36.42
-0.061,0.207,1.221,3.94,75.0,10.81,36.38
-0.028,0.166,1.221,3.94,75.0,10.81,36.38
-0.044,0.166,1.221,3.939,75.0,10.81,36.37
0.141,0.373,1.221,3.938,75.0,10.81,36.37
0.185,0.29,1.221,3.938,75.0,10.81,36.39
-0.041,0.124,1.219,3.938,75.0,10.81,36.4
0.008,0.186,1.221,3.935,65.0,10.81,36.41
0.153,0.228,1.221,3.935,65.0,10.81,36.42
0.12,0.166,1.221,3.935,65.0,10.81,36.42
-0.067,0.207,1.221,3.935,65.0,10.81,36.42
-0.063,0.166,1.218,3.935,65.0,10.81,36.42
-0.064,0.228,1.218,3.934,65.0,10.81,36.38
-0.076,0.186,1.218,3.933,65.0,10.81,36.33
-0.079,0.207,1.218,3.933,65.0,10.81,36.31
-0.078,0.166,1.218,3.933,65.0,10.81,36.31
-0.057,0.207,1.218,3.933,65.0,10.81,36.34
-0.054,0.269,1.218,3.93,65.0,10.79,36.37
-0.029,0.29,1.218,3.93,65.0,10.79,36.4
0.283,0.414,1.218,3.93,65.0,10.79,36.45
-0.076,0.186,1.218,3.929,65.0,10.79,36.53
-0.032,0.249,1.218,3.928,65.0,10.79,36.61
0.095,0.29,1.218,3.928,65.0,10.79,36.69
0.11,0.207,1.218,3.928,65.0,10.79,36.81
-0.107,0.145,1.218,3.926,65.0,10.79,36.95
-0.116,0.228,1.218,3.925,65.0,10.79,37.09
-0.111,0.228,1.218,3.925,65.0,10.79,37.16
-0.125,0.207,1.217,3.923,65.0,10.79,37.23
-0.126,0.166,1.217,3.923,65.0,10.79,37.35
-0.084,0.207,1.216,3.923,65.0,10.79,37.52
-0.126,0.145,1.217,3.923,65.0,10.79,37.69
0.273,0.414,1.217,3.92,65.0,10.79,37.84
-0.125,0.228,1.216,3.92,65.0,10.79,37.98
-0.094,0.228,1.216,3.92,65.0,10.79,38.11
-0.024,0.186,1.216,3.92,73.0,10.79,38.25
0.135,0.166,1.216,3.918,73.0,10.78,38.38
-0.013,0.186,1.216,3.918,73.0,10.78,38.47
-0.128,0.166,1.216,3.916,73.0,10.78,38.52
-0.113,0.166,1.216,3.915,73.0,10.78,38.53
-0.119,0.207,1.216,3.915,73.0,10.78,38.45
-0.111,0.207,1.214,3.914,73.0,10.78,38.36
-0.1,0.166,1.216,3.913,73.0,10.78,38.31
-0.149,0.228,1.214,3.913,73.0,10.78,38.28
0.276,0.414,1.213,3.913,73.0,10.78,38.25
-0.119,0.166,1.213,3.91,73.0,10.78,38.21
-0.073,0.186,1.213,3.91,73.0,10.78,38.17
0.048,0.166,1.213,3.91,80.0,10.78,38.13
0.107,0.186,1.213,3.908,80.0,10.78,38.09
-0.109,0.186,1.213,3.908,80.0,10.78,38.04
-0.121,0.186,1.213,3.906,80.0,10.78,38.02
-0.105,0.145,1.213,3.905,80.0,10.78,37.93
-0.111,0.166,1.213,3.905,80.0,10.78,37.81
-0.109,0.186,1.213,3.905,80.0,10.78,37.71
-0.065,0.145,1.213,3.904,80.0,10.78,37.62
-0.098,0.166,1.213,3.903,80.0,10.78,37.56
0.296,0.373,1.213,3.903,80.0,10.78,37.51
-0.062,0.394,1.213,3.9,80.0,10.78,37.43
-0.066,0.228,1.213,3.9,80.0,10.78,37.33
-0.001,0.145,1.213,3.899,73.0,10.78,37.25
0.157,0.186,1.213,3.899,73.0,10.78,37.17
0.051,0.145,1.213,3.898,73.0,10.78,37.08
-0.081,0.186,1.213,3.898,73.0,10.78,37.0
-0.064,0.166,1.213,3.896,73.0,10.78,36.9
-0.065,0.186,1.213,3.895,73.0,10.78,36.74
-0.069,0.166,1.213,3.895,73.0,10.78,36.61
-0.065,0.186,1.213,3.895,73.0,10.78,36.55
-0.059,0.228,1.213,3.893,73.0,10.78,36.51
-0.029,0.186,1.213,3.893,73.0,10.78,36.49
-0.033,0.207,1.213,3.892,73.0,10.78,36.48
0.12,0.414,1.213,3.891,73.0,10.78,36.48
0.22,0.352,1.213,3.891,73.0,10.78,36.48
-0.03,0.186,1.211,3.888,73.0,10.78,36.48
0.019,0.166,1.211,3.888,65.0,10.78,36.49
0.159,0.228,1.212,3.888,65.0,10.78,36.49
0.151,0.207,1.212,3.888,65.0,10.78,36.5
-0.043,0.207,1.211,3.886,65.0,10.78,36.49
-0.037,0.145,1.211,3.886,65.0,10.78,36.49
-0.037,0.249,1.211,3.886,65.0,10.78,36.45
-0.048,0.145,1.211,3.886,65.0,10.78,36.4
-0.049,0.166,1.211,3.883,65.0,10.78,36.37
-0.046,0.166,1.211,3.883,65.0,10.78,36.37
-0.022,0.207,1.211,3.883,65.0,10.78,36.38
-0.025,0.207,1.211,3.882,65.0,10.78,36.39
0.077,0.456,1.211,3.881,65.0,10.78,36.4
0.248,0.373,1.211,3.881,65.0,10.78,36.41
-0.037,0.207,1.211,3.878,65.0,10.78,36.42
0.008,0.207,1.211,3.878,66.0,10.78,36.45
0.143,0.249,1.211,3.878,66.0,10.78,36.49
0.146,0.228,1.211,3.878,66.0,10.78,36.55
-0.057,0.269,1.211,3.876,66.0,10.78,36.62
-0.06,0.207,1.211,3.876,66.0,10.78,36.7
-0.062,0.228,1.211,3.876,66.0,10.78,36.72
-0.076,0.228,1.211,3.874,66.0,10.78,36.75
-0.075,0.166,1.211,3.873,66.0,10.78,36.84
-0.029,0.207,1.211,3.873,66.0,10.78,36.95
-0.089,0.228,1.211,3.871,66.0,10.78,37.09
0.302,0.435,1.211,3.871,66.0,10.78,37.22
-0.086,0.228,1.209,3.871,66.0,10.78,37.34
-0.054,0.207,1.208,3.869,66.0,10.77,37.47
0.027,0.249,1.208,3.868,73.0,10.77,37.6
0.175,0.249,1.208,3.868,73.0,10.77,37.73
-0.017,0.186,1.208,3.867,73.0,10.77,37.86
-0.095,0.228,1.208,3.866,73.0,10.77,37.98
-0.085,0.186,1.208,3.866,73.0,10.77,38.04
-0.096,0.166,1.208,3.866,73.0,10.77,38.07
-0.053,0.228,1.208,3.864,73.0,10.77,38.09
-0.113,0.166,1.208,3.863,73.0,10.77,38.11
0.277,0.331,1.208,3.863,73.0,10.77,38.14
-0.114,0.249,1.208,3.862,73.0,10.77,38.15
-0.075,0.186,1.208,3.861,73.0,10.77,38.14
-0.003,0.228,1.208,3.861,83.0,10.77,38.12
0.15,0.166,1.206,3.861,83.0,10.77,38.11
-0.006,0.145,1.206,3.859,83.0,10.77,38.09
-0.098,0.207,1.206,3.858,83.0,10.77,38.06
-0.081,0.145,1.206,3.857,83.0,10.77,38.0
-0.085,0.166,1.206,3.857,83.0,10.77,37.9
-0.058,0.166,1.206,3.856,83.0,10.77,37.82
-0.057,0.186,1.206,3.856,83.0,10.77,37.75
-0.073,0.186,1.206,3.856,83.0,10.76,37.69
0.309,0.477,1.206,3.854,83.0,10.77,37.65
-0.066,0.166,1.206,3.853,83.0,10.77,37.62
-0.017,0.166,1.206,3.853,83.0,10.76,37.58
0.112,0.145,1.206,3.853,80.0,10.76,37.54
0.145,0.186,1.206,3.851,80.0,10.76,37.49
-0.057,0.228,1.206,3.851,80.0,10.76,37.45
-0.06,0.166,1.206,3.851,80.0,10.77,37.41
-0.057,0.145,1.206,3.849,80.0,10.76,37.29
-0.068,0.166,1.206,3.848,80.0,10.76,37.17
-0.01,0.207,1.206,3.848,80.0,10.76,37.08
-0.071,0.207,1.206,3.846,80.0,10.76,37.01
0.327,0.435,1.206,3.846,80.0,10.76,36.96
-0.036,0.249,1.206,3.846,80.0,10.76,36.92
-0.042,0.228,1.206,3.846,80.0,10.77,36.87
0.023,0.166,1.206,3.843,80.0,10.76,36.81
0.177,0.207,1.206,3.843,80.0,10.76,36.76
0.058,0.207,1.206,3.843,80.0,10.76,36.71
-0.064,0.166,1.206,3.842,80.0,10.76,36.67
-0.051,0.124,1.204,3.841,80.0,10.76,36.62
-0.057,0.186,1.206,3.841,80.0,10.76,36.52
-0.066,0.228,1.206,3.839,80.0,10.76,36.44
-0.028,0.228,1.206,3.839,80.0,10.76,36.4
-0.037,0.186,1.203,3.838,80.0,10.76,36.37
-0.07,0.186,1.204,3.838,80.0,10.76,36.38
0.186,0.414,1.204,3.838,80.0,10.76,36.38
-0.048,0.166,1.203,3.836,80.0,10.76,36.38
-0.01,0.145,1.203,3.836,80.0,10.76,36.39
0.111,0.166,1.203,3.836,75.0,10.76,36.4
0.151,0.186,1.203,3.834,75.0,10.76,36.42
-0.062,0.145,1.203,3.833,75.0,10.76,36.42
-0.069,0.186,1.203,3.833,75.0,10.76,36.42
-0.068,0.166,1.203,3.833,75.0,10.76,36.39
-0.082,0.145,1.203,3.833,75.0,10.76,36.35
-0.087,0.186,1.203,3.831,75.0,10.76,36.35
-0.09,0.207,1.203,3.831,75.0,10.76,36.37
-0.048,0.228,1.203,3.831,75.0,10.76,36.42
-0.091,0.186,1.203,3.828,75.0,10.76,36.47
0.303,0.435,1.203,3.828,75.0,10.76,36.52
-0.085,0.228,1.203,3.828,75.0,10.76,36.61
-0.075,0.207,1.203,3.828,75.0,10.76,36.69
-0.013,0.207,1.203,3.828,68.0,10.76,36.79
0.14,0.186,1.203,3.828,68.0,10.76,36.9
0.03,0.186,1.203,3.828,68.0,10.76,37.02
-0.105,0.207,1.203,3.826,68.0,10.76,37.14
-0.095,0.166,1.203,3.826,68.0,10.76,37.24
-0.101,0.166,1.203,3.826,68.0,10.76,37.3
-0.104,0.166,1.203,3.826,68.0,10.76,37.36
-0.065,0.228,1.203,3.826,68.0,10.76,37.45
-0.089,0.186,1.203,3.823,68.0,10.76,37.58
0.132,0.228,1.203,3.823,68.0,10.76,37.71
0.045,0.29,1.203,3.823,68.0,10.76,37.79
-0.079,0.166,1.203,3.823,68.0,10.76,37.89
-0.022,0.186,1.202,3.822,75.0,10.76,37.99
0.124,0.166,1.201,3.821,75.0,10.76,38.07
0.07,0.186,1.201,3.821,75.0,10.76,38.15
-0.094,0.186,1.201,3.821,75.0,10.76,38.18
-0.086,0.145,1.201,3.819,75.0,10.76,38.17
-0.086,0.145,1.201,3.818,75.0,10.76,38.1
-0.091,0.124,1.201,3.818,75.0,10.76,38.0
-0.043,0.186,1.201,3.816,75.0,10.76,37.92
-0.087,0.207,1.201,3.817,75.0,10.76,37.86
0.286,0.352,1.201,3.816,75.0,10.76,37.76
-0.062,0.311,1.201,3.816,75.0,10.76,37.75
-0.062,0.145,1.201,3.816,75.0,10.76,37.7
0.0,0.207,1.201,3.814,78.0,10.76,37.63
0.154,0.145,1.201,3.813,78.0,10.76,37.58
0.04,0.186,1.201,3.813,78.0,10.76,37.53
-0.091,0.166,1.201,3.812,78.0,10.76,37.47
-0.077,0.207,1.201,3.811,78.0,10.76,37.4
-0.077,0.186,1.201,3.811,78.0,10.74,37.26
-0.084,0.186,1.201,3.808,78.0,10.74,37.13
-0.081,0.166,1.201,3.808,78.0,10.74,37.05
-0.076,0.124,1.199,3.808,78.0,10.76,36.98
-0.07,0.186,1.198,3.808,78.0,10.74,36.94
-0.022,0.145,1.198,3.806,78.0,10.74,36.89
-0.066,0.166,1.198,3.806,78.0,10.74,36.83
0.371,0.539,1.198,3.806,78.0,10.74,36.77
-0.056,0.228,1.198,3.806,78.0,10.74,36.73
-0.036,0.186,1.198,3.803,78.0,10.74,36.68
0.031,0.186,1.198,3.803,63.0,10.74,36.66
0.183,0.207,1.198,3.801,63.0,10.74,36.63
0.03,0.166,1.198,3.801,63.0,10.74,36.6
-0.078,0.186,1.198,3.801,63.0,10.74,36.59
-0.066,0.186,1.198,3.801,63.0,10.74,36.56
-0.075,0.207,1.198,3.799,63.0,10.74,36.48
-0.084,0.228,1.198,3.799,63.0,10.74,36.42
-0.085,0.249,1.198,3.797,63.0,10.74,36.4
-0.083,0.186,1.198,3.796,63.0,10.74,36.39
-0.082,0.166,1.198,3.796,63.0,10.74,36.41
-0.041,0.166,1.198,3.796,63.0,10.74,36.41
-0.076,0.186,1.198,3.796,63.0,10.74,36.42
0.308,0.477,1.198,3.794,63.0,10.74,36.42
-0.037,0.352,1.198,3.794,63.0,10.74,36.44
-0.061,0.145,1.198,3.794,63.0,10.74,36.45
-0.006,0.166,1.198,3.792,60.0,10.74,36.47
0.141,0.186,1.198,3.791,60.0,10.74,36.47
0.061,0.186,1.198,3.791,60.0,10.74,36.48
-0.104,0.186,1.198,3.791,60.0,10.74,36.49
-0.098,0.166,1.197,3.79,60.0,10.73,36.48
-0.104,0.186,1.198,3.789,60.0,10.73,36.43
-0.115,0.228,1.198,3.789,60.0,10.73,36.42
-0.115,0.166,1.197,3.789,60.0,10.74,36.43
-0.113,0.207,1.197,3.786,60.0,10.73,36.47
-0.114,0.186,1.196,3.786,60.0,10.74,36.55
-0.095,0.186,1.196,3.786,60.0,10.73,36.61
-0.087,0.228,1.196,3.786,60.0,10.74,36.68
-0.048,0.29,1.196,3.785,60.0,10.73,36.75
0.235,0.518,1.196,3.784,60.0,10.74,36.84
-0.091,0.186,1.196,3.784,60.0,10.74,36.94
-0.046,0.186,1.196,3.784,60.0,10.73,37.04
0.084,0.166,1.196,3.782,60.0,10.74,37.13
0.126,0.186,1.196,3.781,60.0,10.73,37.24
-0.096,0.207,1.196,3.781,60.0,10.74,37.34
-0.107,0.186,1.196,3.781,60.0,10.73,37.44
-0.097,0.186,1.196,3.78,60.0,10.73,37.48
-0.108,0.249,1.196,3.779,60.0,10.73,37.52
-0.105,0.186,1.196,3.779,60.0,10.73,37.59
-0.056,0.228,1.196,3.779,60.0,10.73,37.68
-0.111,0.207,1.196,3.776,60.0,10.73,37.79
0.281,0.394,1.196,3.776,60.0,10.73,37.88
-0.108,0.228,1.193,3.775,60.0,10.73,37.96
-0.067,0.166,1.193,3.774,60.0,10.73,38.03
0.009,0.269,1.193,3.774,74.0,10.73,38.09
0.168,0.166,1.193,3.774,74.0,10.73,38.13
-0.006,0.186,1.193,3.774,74.0,10.73,38.15
-0.101,0.186,1.193,3.772,74.0,10.73,38.15
-0.084,0.207,1.193,3.771,74.0,10.73,38.13
-0.091,0.124,1.193,3.771,74.0,10.73,38.06
-0.096,0.145,1.193,3.77,74.0,10.73,37.98
-0.048,0.166,1.193,3.769,74.0,10.73,37.92
-0.102,0.186,1.193,3.769,74.0,10.73,37.89
0.31,0.331,1.193,3.769,74.0,10.73,37.86
-0.097,0.249,1.193,3.769,74.0,10.73,37.83
-0.059,0.207,1.193,3.766,74.0,10.73,37.79
0.02,0.145,1.193,3.766,77.0,10.73,37.77
0.18,0.186,1.193,3.766,77.0,10.73,37.76
-0.001,0.186,1.193,3.766,77.0,10.73,37.75
-0.091,0.145,1.193,3.764,77.0,10.73,37.74
-0.075,0.124,1.193,3.764,77.0,10.73,37.7
-0.078,0.145,1.193,3.764,77.0,10.73,37.59
-0.088,0.186,1.193,3.764,77.0,10.73,37.52
-0.085,0.166,1.193,3.761,77.0,10.73,37.47
-0.042,0.186,1.193,3.761,77.0,10.73,37.44
-0.076,0.166,1.193,3.761,77.0,10.73,37.44
0.287,0.373,1.193,3.761,77.0,10.73,37.42
-0.021,0.29,1.193,3.76,77.0,10.73,37.38
-0.051,0.186,1.193,3.759,77.0,10.73,37.35
0.006,0.145,1.193,3.759,70.0,10.73,37.33
0.165,0.186,1.193,3.759,70.0,10.73,37.3
0.076,0.207,1.193,3.757,70.0,10.73,37.28
-0.084,0.166,1.193,3.756,70.0,10.73,37.24
-0.075,0.186,1.191,3.756,70.0,10.73,37.19
-0.076,0.166,1.192,3.755,70.0,10.73,37.07
-0.086,0.145,1.191,3.754,70.0,10.73,36.96
-0.088,0.207,1.191,3.754,70.0,10.73,36.89
-0.085,0.124,1.191,3.754,70.0,10.73,36.84
-0.057,0.207,1.191,3.751,70.0,10.73,36.81
-0.06,0.228,1.191,3.751,70.0,10.73,36.77
0.025,0.435,1.191,3.751,70.0,10.73,36.73
0.254,0.352,1.191,3.751,70.0,10.73,36.7
-0.059,0.124,1.191,3.749,70.0,10.73,36.68
-0.009,0.166,1.191,3.749,70.0,10.73,36.65
0.132,0.166,1.191,3.749,65.0,10.73,36.64
0.143,0.166,1.191,3.749,65.0,10.73,36.62
-0.069,0.207,1.191,3.746,65.0,10.73,36.59
-0.07,0.166,1.191,3.746,65.0,10.73,36.58
-0.061,0.186,1.191,3.746,65.0,10.73,36.52
-0.07,0.207,1.191,3.746,65.0,10.73,36.44
-0.07,0.166,1.191,3.745,65.0,10.73,36.41
-0.068,0.166,1.191,3.744,65.0,10.73,36.39
-0.067,0.166,1.191,3.744,65.0,10.73,36.41
-0.064,0.186,1.191,3.744,65.0,10.73,36.42
-0.038,0.145,1.191,3.742,65.0,10.73,36.42
-0.032,0.207,1.191,3.741,65.0,10.73,36.42
-0.047,0.207,1.191,3.741,65.0,10.73,36.43
0.358,0.518,1.191,3.741,65.0,10.72,36.45
-0.045,0.207,1.189,3.74,65.0,10.72,36.46
-0.001,0.145,1.191,3.739,65.0,10.72,36.47
0.123,0.186,1.191,3.739,58.0,10.72,36.48
0.192,0.145,1.189,3.737,58.0,10.73,36.49
-0.045,0.166,1.188,3.736,58.0,10.72,36.49
-0.063,0.186,1.188,3.736,58.0,10.72,36.48
-0.056,0.145,1.188,3.736,58.0,10.72,36.45
-0.067,0.207,1.188,3.736,58.0,10.72,36.4
-0.072,0.166,1.188,3.736,58.0,10.72,36.39
-0.07,0.186,1.188,3.735,58.0,10.72,36.39
-0.071,0.207,1.188,3.734,58.0,10.72,36.41
-0.052,0.145,1.188,3.732,58.0,10.72,36.44
-0.041,0.186,1.188,3.732,58.0,10.72,36.47
-0.094,0.249,1.188,3.731,58.0,10.72,36.51
0.352,0.497,1.188,3.731,58.0,10.72,36.57
-0.067,0.186,1.188,3.731,58.0,10.72,36.65
-0.029,0.207,1.188,3.73,58.0,10.72,36.73
0.085,0.207,1.188,3.729,61.0,10.72,36.81
0.186,0.207,1.188,3.729,61.0,10.72,36.9
-0.058,0.186,1.188,3.729,61.0,10.72,36.98
-0.095,0.186,1.188,3.729,61.0,10.72,37.06
-0.083,0.228,1.188,3.727,61.0,10.72,37.12
-0.095,0.186,1.188,3.726,61.0,10.72,37.15
-0.098,0.145,1.188,3.726,61.0,10.72,37.23
-0.052,0.249,1.188,3.726,61.0,10.72,37.33
-0.113,0.29,1.188,3.724,61.0,10.72,37.45
0.286,0.414,1.188,3.724,61.0,10.72,37.56
-0.105,0.207,1.188,3.724,61.0,10.72,37.63
-0.066,0.166,1.188,3.724,61.0,10.72,37.72
0.02,0.228,1.188,3.721,75.0,10.72,37.78
0.182,0.186,1.188,3.721,75.0,10.71,37.83
-0.017,0.207,1.187,3.721,75.0,10.71,37.85
-0.106,0.207,1.186,3.721,75.0,10.72,37.86
-0.09,0.124,1.186,3.72,75.0,10.71,37.84
-0.097,0.145,1.186,3.719,75.0,10.72,37.76
-0.1,0.145,1.186,3.719,75.0,10.71,37.7
-0.05,0.166,1.186,3.719,75.0,10.72,37.67
-0.109,0.207,1.186,3.719,75.0,10.72,37.65
0.308,0.352,1.186,3.716,75.0,10.72,37.62
-0.101,0.228,1.186,3.716,75.0,10.72,37.58
-0.064,0.145,1.186,3.716,75.0,10.71,37.54
0.011,0.186,1.186,3.716,77.0,10.71,37.49
0.176,0.186,1.186,3.714,77.0,10.72,37.45
-0.01,0.186,1.186,3.714,77.0,10.71,37.42
-0.106,0.166,1.186,3.714,77.0,10.71,37.38
-0.092,0.145,1.186,3.714,77.0,10.71,37.32
-0.096,0.166,1.186,3.712,77.0,10.71,37.2
-0.104,0.186,1.186,3.712,77.0,10.71,37.11
-0.084,0.186,1.186,3.712,77.0,10.71,37.04
-0.07,0.145,1.186,3.712,77.0,10.71,37.01
-0.128,0.228,1.186,3.71,77.0,10.71,36.97
0.336,0.414,1.186,3.709,77.0,10.71,36.93
-0.095,0.166,1.186,3.709,77.0,10.71,36.89
-0.054,0.166,1.186,3.709,77.0,10.71,36.86
0.057,0.166,1.186,3.707,72.0,10.71,36.84
0.156,0.207,1.184,3.707,72.0,10.71,36.81
-0.078,0.186,1.183,3.707,72.0,10.71,36.77
-0.103,0.166,1.183,3.707,72.0,10.71,36.73
-0.088,0.186,1.183,3.707,72.0,10.71,36.66
-0.098,0.186,1.183,3.705,72.0,10.71,36.55
-0.103,0.186,1.183,3.704,72.0,10.71,36.49
-0.1,0.166,1.183,3.704,72.0,10.71,36.46
-0.094,0.186,1.183,3.703,72.0,10.71,36.45
-0.088,0.207,1.183,3.702,72.0,10.71,36.46
-0.041,0.207,1.183,3.702,72.0,10.71,36.44
-0.093,0.186,1.183,3.702,72.0,10.71,36.46
0.348,0.456,1.183,3.702,72.0,10.71,36.46
-0.073,0.166,1.183,3.699,72.0,10.71,36.47
-0.048,0.269,1.183,3.699,72.0,10.71,36.48
0.03,0.186,1.183,3.699,60.0,10.71,36.49
0.196,0.186,1.183,3.699,60.0,10.71,36.49
0.013,0.145,1.183,3.697,60.0,10.71,36.5
-0.084,0.166,1.183,3.697,60.0,10.71,36.49
-0.069,0.186,1.183,3.697,60.0,10.71,36.48
-0.077,0.166,1.183,3.697,60.0,10.71,36.42
-0.085,0.166,1.183,3.697,60.0,10.71,36.38
-0.087,0.207,1.183,3.694,60.0,10.71,36.37
-0.047,0.186,1.183,3.694,60.0,10.71,36.38
-0.037,0.186,1.182,3.694,60.0,10.71,36.42
-0.073,0.166,1.182,3.694,60.0,10.71,36.45
0.121,0.352,1.183,3.692,60.0,10.71,36.49
0.121,0.331,1.182,3.693,60.0,10.71,36.55
-0.072,0.186,1.183,3.69,60.0,10.71,36.68
-0.02,0.228,1.183,3.692,64.0,10.71,36.69
0.126,0.207,1.181,3.692,64.0,10.71,36.76
0.114,0.166,1.181,3.689,64.0,10.71,36.85
-0.092,0.228,1.181,3.689,64.0,10.71,36.94
-0.097,0.207,1.181,3.689,64.0,10.71,37.0
-0.096,0.166,1.181,3.689,64.0,10.71,37.02
-0.106,0.249,1.181,3.687,64.0,10.71,37.06
-0.106,0.186,1.181,3.687,64.0,10.71,37.14
-0.057,0.207,1.181,3.687,64.0,10.71,37.37
-0.103,0.186,1.181,3.687,64.0,10.71,37.39
0.264,0.394,1.181,3.684,64.0,10.71,37.49
-0.081,0.269,1.181,3.684,64.0,10.71,37.6
-0.075,0.186,1.181,3.684,64.0,10.71,37.68
-0.012,0.186,1.181,3.682,72.0,10.71,37.78
0.156,0.207,1.179,3.683,72.0,10.71,37.9
0.063,0.228,1.178,3.682,72.0,10.71,38.01
-0.097,0.186,1.179,3.682,72.0,10.71,38.11
-0.089,0.186,1.179,3.682,72.0,10.71,38.19
-0.09,0.269,1.178,3.679,72.0,10.71,38.19
-0.065,0.186,1.178,3.679,72.0,10.71,38.19
-0.08,0.166,1.179,3.679,72.0,10.71,38.19
-0.062,0.207,1.178,3.677,72.0,10.7,38.18
0.247,0.373,1.178,3.677,72.0,10.7,38.18
-0.079,0.207,1.178,3.677,72.0,10.71,38.15
-0.027,0.145,1.178,3.677,72.0,10.71,38.11
0.111,0.166,1.178,3.677,82.0,10.7,38.08
0.133,0.124,1.178,3.677,82.0,10.7,38.04
-0.077,0.145,1.178,3.674,82.0,10.7,38.0
-0.079,0.207,1.178,3.674,82.0,10.7,37.97
-0.071,0.145,1.178,3.674,82.0,10.71,37.87
-0.08,0.166,1.178,3.674,82.0,10.7,37.74
-0.079,0.166,1.178,3.673,82.0,10.7,37.63
-0.075,0.145,1.178,3.672,82.0,10.71,37.56
-0.03,0.166,1.178,3.672,82.0,10.71,37.52
-0.078,0.186,1.178,3.67,82.0,10.71,37.47
0.361,0.414,1.178,3.669,82.0,10.7,37.41
-0.065,0.186,1.178,3.669,82.0,10.71,37.34
-0.035,0.166,1.178,3.669,82.0,10.7,37.3
0.039,0.166,1.178,3.669,68.0,10.7,37.23
0.203,0.186,1.178,3.668,68.0,10.7,37.17
0.034,0.166,1.178,3.667,68.0,10.7,37.11
-0.068,0.186,1.178,3.667,68.0,10.7,37.03
-0.053,0.186,1.178,3.667,68.0,10.7,36.94
-0.058,0.186,1.178,3.664,68.0,10.7,36.78
-0.066,0.166,1.178,3.665,68.0,10.7,36.68
-0.066,0.166,1.178,3.664,68.0,10.7,36.61
-0.063,0.249,1.178,3.664,68.0,10.7,36.54
-0.061,0.207,1.178,3.664,68.0,10.7,36.53
-0.044,0.186,1.178,3.662,68.0,10.7,36.49
-0.02,0.207,1.178,3.662,68.0,10.7,36.47
-0.083,0.166,1.178,3.662,68.0,10.7,36.46
0.402,0.559,1.178,3.662,68.0,10.7,36.46
-0.052,0.166,1.178,3.659,68.0,10.7,36.46
-0.015,0.228,1.178,3.659,68.0,10.7,36.47
0.086,0.207,1.178,3.659,59.0,10.7,36.47
0.213,0.228,1.178,3.659,59.0,10.7,36.47
-0.02,0.145,1.178,3.657,59.0,10.7,36.47
-0.068,0.186,1.178,3.658,59.0,10.7,36.46
-0.06,0.166,1.176,3.657,59.0,10.7,36.43
-0.072,0.249,1.178,3.657,59.0,10.7,36.39
-0.079,0.186,1.176,3.657,59.0,10.7,36.4
-0.081,0.228,1.177,3.654,59.0,10.7,36.44
-0.085,0.166,1.177,3.654,59.0,10.68,36.52
-0.076,0.269,1.176,3.654,59.0,10.68,36.59
-0.042,0.249,1.176,3.654,59.0,10.68,36.66
-0.104,0.249,1.176,3.654,59.0,10.7,36.77
0.329,0.414,1.176,3.652,59.0,10.68,36.89
-0.078,0.207,1.176,3.652,59.0,10.7,37.05
-0.046,0.186,1.176,3.652,59.0,10.68,37.23
0.044,0.207,1.176,3.652,61.0,10.7,37.38
0.195,0.186,1.176,3.652,61.0,10.68,37.55
-0.02,0.228,1.176,3.652,61.0,10.68,37.71
-0.092,0.207,1.176,3.649,61.0,10.68,37.86
-0.082,0.207,1.176,3.649,61.0,10.68,37.97
-0.091,0.166,1.176,3.649,61.0,10.68,38.04
-0.081,0.228,1.176,3.649,61.0,10.68,38.15
-0.056,0.207,1.176,3.649,61.0,10.68,38.27
-0.116,0.166,1.176,3.649,61.0,10.68,38.43
0.296,0.435,1.176,3.647,61.0,10.68,38.59
-0.076,0.228,1.176,3.647,61.0,10.68,38.66
-0.034,0.207,1.174,3.647,61.0,10.7,38.71
0.073,0.166,1.176,3.644,78.0,10.68,38.76
0.204,0.207,1.176,3.647,78.0,10.68,38.79
-0.019,0.166,1.174,3.644,78.0,10.68,38.76
-0.066,0.186,1.173,3.644,78.0,10.68,38.69
-0.05,0.166,1.173,3.644,78.0,10.68,38.59
-0.057,0.166,1.176,3.644,78.0,10.68,38.44
-0.03,0.186,1.174,3.644,78.0,10.68,38.27
-0.025,0.145,1.173,3.644,78.0,10.68,38.15
-0.076,0.166,1.173,3.643,78.0,10.68,38.01
0.393,0.497,1.173,3.642,78.0,10.68,37.89
-0.042,0.207,1.174,3.642,78.0,10.68,37.75
0.005,0.186,1.173,3.642,78.0,10.68,37.6
0.126,0.207,1.173,3.64,78.0,10.68,37.45
0.208,0.166,1.173,3.639,78.0,10.68,37.33
-0.026,0.145,1.173,3.639,78.0,10.68,37.19
-0.043,0.145,1.173,3.639,78.0,10.68,37.09
-0.034,0.166,1.173,3.639,78.0,10.68,36.96
-0.045,0.186,1.173,3.637,78.0,10.68,36.8
-0.041,0.207,1.173,3.638,78.0,10.68,36.72
0.015,0.186,1.173,3.637,78.0,10.68,36.65
-0.057,0.145,1.173,3.637,78.0,10.68,36.64
0.383,0.414,1.173,3.634,78.0,10.68,36.63
-0.043,0.166,1.173,3.634,78.0,10.68,36.63
-0.022,0.166,1.173,3.634,78.0,10.68,36.64
0.048,0.166,1.173,3.634,75.0,10.68,36.64
0.206,0.166,1.173,3.634,75.0,10.68,36.65
0.023,0.186,1.173,3.633,75.0,10.68,36.66
-0.077,0.166,1.173,3.632,75.0,10.68,36.66
-0.07,0.145,1.173,3.632,75.0,10.68,36.65
-0.083,0.186,1.173,3.632,75.0,10.68,36.6
-0.1,0.207,1.173,3.632,75.0,10.68,36.58
-0.103,0.186,1.173,3.63,75.0,10.68,36.6
-0.077,0.186,1.173,3.629,75.0,10.68,36.65
-0.091,0.186,1.173,3.629,75.0,10.68,36.74
-0.044,0.373,1.173,3.629,75.0,10.68,36.8
0.208,0.352,1.173,3.627,75.0,10.68,36.96
-0.116,0.207,1.173,3.627,75.0,10.68,36.98
-0.072,0.186,1.173,3.627,75.0,10.68,37.09
0.058,0.145,1.173,3.627,68.0,10.68,37.21
0.088,0.186,1.173,3.627,68.0,10.68,37.33
-0.131,0.186,1.173,3.625,68.0,10.68,37.44
-0.141,0.207,1.173,3.625,68.0,10.68,37.53
-0.137,0.166,1.173,3.625,68.0,10.68,37.57
-0.148,0.166,1.173,3.625,68.0,10.68,37.6
-0.101,0.207,1.172,3.623,68.0,10.68,37.67
-0.146,0.228,1.173,3.622,68.0,10.68,37.77
0.21,0.394,1.172,3.622,68.0,10.68,37.89
-0.121,0.228,1.171,3.622,68.0,10.67,37.99
-0.12,0.145,1.171,3.622,68.0,10.67,38.06
-0.055,0.207,1.171,3.62,79.0,10.67,38.14
0.111,0.207,1.171,3.62,79.0,10.67,38.24
0.014,0.228,1.171,3.62,79.0,10.67,38.34
-0.132,0.166,1.171,3.62,79.0,10.67,38.44
-0.118,0.186,1.171,3.618,79.0,10.67,38.48
-0.115,0.186,1.171,3.617,79.0,10.67,38.47
-0.078,0.186,1.171,3.617,79.0,10.67,38.47
-0.113,0.186,1.171,3.617,79.0,10.67,38.46
0.118,0.311,1.171,3.617,79.0,10.67,38.47
0.038,0.29,1.171,3.615,79.0,10.67,38.47
-0.089,0.186,1.171,3.615,79.0,10.67,38.44
-0.034,0.207,1.171,3.615,83.0,10.67,38.4
0.119,0.145,1.169,3.615,83.0,10.67,38.37
0.07,0.228,1.171,3.612,83.0,10.67,38.35
-0.095,0.166,1.171,3.612,83.0,10.67,38.34
-0.086,0.166,1.168,3.612,83.0,10.67,38.32
-0.089,0.145,1.169,3.612,83.0,10.67,38.22
-0.095,0.186,1.168,3.61,83.0,10.67,38.15
-0.056,0.186,1.169,3.611,83.0,10.67,38.09
-0.118,0.166,1.168,3.61,83.0,10.67,38.04
0.312,0.414,1.168,3.61,83.0,10.67,38.02
-0.097,0.249,1.168,3.608,83.0,10.67,37.99
-0.064,0.145,1.169,3.608,83.0,10.67,37.94
0.017,0.145,1.168,3.607,80.0,10.67,37.91
0.156,0.186,1.168,3.607,80.0,10.67,37.87
-0.052,0.228,1.168,3.607,80.0,10.67,37.86
-0.117,0.186,1.168,3.606,80.0,10.67,37.82
-0.106,0.186,1.168,3.605,80.0,10.67,37.77
-0.118,0.186,1.168,3.605,80.0,10.67,37.65
-0.125,0.186,1.168,3.605,80.0,10.67,37.57
-0.074,0.145,1.168,3.605,80.0,10.67,37.5
-0.126,0.186,1.168,3.603,80.0,10.67,37.47
0.306,0.497,1.168,3.602,80.0,10.67,37.45
-0.117,0.394,1.168,3.602,80.0,10.67,37.41
-0.089,0.145,1.168,3.602,80.0,10.67,37.37
-0.022,0.186,1.168,3.602,75.0,10.67,37.32
0.134,0.166,1.168,3.6,75.0,10.67,37.28
0.009,0.166,1.168,3.6,75.0,10.67,37.22
-0.109,0.145,1.168,3.6,75.0,10.67,37.15
-0.089,0.166,1.168,3.6,75.0,10.67,37.06
-0.09,0.228,1.168,3.598,75.0,10.67,36.92
-0.091,0.186,1.168,3.597,75.0,10.67,36.79
-0.085,0.207,1.168,3.597,75.0,10.67,36.73
-0.075,0.145,1.168,3.597,75.0,10.67,36.69
-0.023,0.207,1.168,3.597,75.0,10.67,36.67
-0.069,0.145,1.168,3.595,75.0,10.67,36.65
0.357,0.435,1.168,3.595,75.0,10.67,36.65
-0.043,0.249,1.168,3.595,75.0,10.67,36.64
-0.035,0.207,1.168,3.593,75.0,10.67,36.65
0.027,0.166,1.168,3.595,65.0,10.67,36.65
0.18,0.166,1.168,3.592,65.0,10.67,36.66
0.091,0.166,1.168,3.592,65.0,10.66,36.66
-0.058,0.207,1.168,3.592,65.0,10.67,36.66
-0.045,0.145,1.168,3.592,65.0,10.66,36.65
-0.053,0.166,1.168,3.592,65.0,10.66,36.59
-0.062,0.228,1.168,3.591,65.0,10.66,36.54
-0.062,0.166,1.168,3.59,65.0,10.67,36.54
-0.061,0.166,1.168,3.59,65.0,10.67,36.54
-0.061,0.166,1.168,3.59,65.0,10.66,36.55
-0.017,0.186,1.168,3.587,65.0,10.67,36.55
-0.066,0.228,1.167,3.587,65.0,10.66,36.58
0.358,0.497,1.167,3.587,65.0,10.66,36.6
-0.064,0.228,1.167,3.587,65.0,10.66,36.64
-0.045,0.186,1.166,3.587,65.0,10.66,36.7
0.015,0.166,1.166,3.585,62.0,10.66,36.77
0.169,0.186,1.166,3.585,62.0,10.66,36.87
0.046,0.207,1.166,3.585,62.0,10.66,36.95
-0.089,0.166,1.166,3.585,62.0,10.66,37.04
-0.081,0.186,1.166,3.583,62.0,10.66,37.1
-0.091,0.166,1.166,3.583,62.0,10.66,37.12
-0.101,0.166,1.166,3.582,62.0,10.66,37.17
-0.095,0.166,1.166,3.582,62.0,10.66,37.26
-0.047,0.207,1.166,3.582,62.0,10.66,37.36
-0.111,0.166,1.166,3.58,62.0,10.66,37.48
0.293,0.331,1.166,3.58,62.0,10.66,37.57
-0.099,0.166,1.166,3.58,62.0,10.66,37.66
-0.063,0.166,1.166,3.58,62.0,10.66,37.76
0.017,0.207,1.166,3.58,72.0,10.66,37.85
0.17,0.207,1.166,3.577,72.0,10.66,37.96
-0.005,0.228,1.166,3.577,72.0,10.66,38.06
-0.097,0.145,1.166,3.577,72.0,10.66,38.14
-0.083,0.145,1.166,3.577,72.0,10.66,38.18
-0.092,0.186,1.166,3.576,72.0,10.66,38.15
-0.063,0.186,1.166,3.575,72.0,10.66,38.14
-0.072,0.166,1.166,3.575,72.0,10.66,38.13
-0.078,0.207,1.166,3.575,72.0,10.66,38.13
0.268,0.435,1.166,3.575,72.0,10.66,38.11
-0.08,0.228,1.164,3.573,72.0,10.66,38.08
-0.031,0.207,1.166,3.572,72.0,10.66,38.04
0.095,0.186,1.163,3.572,80.0,10.66,38.01
0.136,0.186,1.163,3.572,80.0,10.66,37.99
-0.076,0.207,1.166,3.572,80.0,10.66,37.96
-0.083,0.186,1.163,3.57,80.0,10.66,37.93
-0.079,0.145,1.166,3.57,80.0,10.66,37.84
-0.09,0.207,1.163,3.57,80.0,10.66,37.73
-0.052,0.186,1.164,3.57,80.0,10.66,37.66
-0.069,0.207,1.163,3.567,80.0,10.66,37.6
-0.056,0.249,1.164,3.567,80.0,10.66,37.59
0.28,0.414,1.164,3.567,80.0,10.66,37.56
-0.076,0.186,1.163,3.567,80.0,10.66,37.53
-0.03,0.166,1.164,3.566,80.0,10.66,37.5
0.092,0.186,1.164,3.565,77.0,10.66,37.47
0.127,0.186,1.163,3.565,77.0,10.66,37.45
-0.085,0.145,1.163,3.565,77.0,10.66,37.41
-0.089,0.166,1.163,3.565,77.0,10.66,37.38
-0.087,0.145,1.163,3.562,77.0,10.66,37.28
-0.1,0.186,1.163,3.562,77.0,10.66,37.17
-0.102,0.207,1.163,3.562,77.0,10.66,37.1
-0.067,0.186,1.163,3.562,77.0,10.66,37.05
-0.06,0.207,1.163,3.561,77.0,10.66,37.02
-0.11,0.249,1.163,3.56,77.0,10.66,36.99
0.344,0.394,1.163,3.56,77.0,10.66,36.95
-0.08,0.186,1.163,3.56,77.0,10.66,36.91
-0.037,0.166,1.163,3.56,77.0,10.66,36.88
0.075,0.145,1.163,3.557,70.0,10.66,36.86
0.163,0.166,1.163,3.557,70.0,10.66,36.84
-0.056,0.186,1.163,3.557,70.0,10.66,36.81
-0.074,0.207,1.163,3.557,70.0,10.66,36.79
-0.07,0.186,1.163,3.557,70.0,10.66,36.73
-0.081,0.145,1.163,3.555,70.0,10.66,36.65
-0.082,0.207,1.163,3.555,70.0,10.66,36.6
-0.081,0.186,1.163,3.555,70.0,10.66,36.58
-0.077,0.166,1.163,3.555,70.0,10.66,36.58
-0.045,0.145,1.163,3.555,70.0,10.66,36.59
-0.041,0.186,1.163,3.553,70.0,10.66,36.59
-0.06,0.166,1.162,3.552,70.0,10.66,36.6
0.344,0.373,1.163,3.552,70.0,10.66,36.61
-0.055,0.145,1.163,3.551,70.0,10.66,36.63
-0.01,0.145,1.163,3.55,70.0,10.66,36.64
0.104,0.166,1.161,3.55,62.0,10.66,36.64
0.179,0.186,1.161,3.55,62.0,10.66,36.66
-0.043,0.145,1.161,3.55,62.0,10.66,36.66
-0.06,0.166,1.161,3.55,62.0,10.65,36.65
-0.057,0.145,1.161,3.548,62.0,10.65,36.62
-0.071,0.207,1.161,3.547,62.0,10.66,36.57
-0.075,0.166,1.161,3.547,62.0,10.66,36.57
-0.074,0.166,1.161,3.547,62.0,10.66,36.57
-0.021,0.186,1.161,3.547,62.0,10.65,36.61
-0.075,0.228,1.161,3.546,62.0,10.65,36.65
0.322,0.477,1.161,3.545,62.0,10.65,36.69
-0.067,0.207,1.161,3.545,62.0,10.65,36.75
-0.052,0.207,1.161,3.545,62.0,10.65,36.83
0.009,0.186,1.161,3.545,68.0,10.65,36.91
0.166,0.207,1.161,3.542,68.0,10.65,37.01
0.071,0.186,1.161,3.542,68.0,10.65,37.11
-0.079,0.207,1.161,3.542,68.0,10.65,37.2
-0.071,0.186,1.161,3.542,68.0,10.65,37.27
-0.075,0.166,1.161,3.541,68.0,10.65,37.3
-0.082,0.145,1.161,3.54,68.0,10.65,37.35
-0.035,0.228,1.161,3.54,68.0,10.65,37.44
-0.079,0.207,1.161,3.54,68.0,10.65,37.55
0.242,0.456,1.161,3.54,68.0,10.65,37.67
-0.028,0.352,1.161,3.54,68.0,10.65,37.77
-0.058,0.207,1.161,3.538,68.0,10.65,37.85
0.0,0.207,1.161,3.538,76.0,10.65,37.96
0.154,0.207,1.161,3.538,76.0,10.65,38.07
0.087,0.207,1.161,3.538,76.0,10.65,38.17
-0.076,0.166,1.161,3.538,76.0,10.65,38.24
-0.068,0.249,1.159,3.535,76.0,10.65,38.27
-0.072,0.166,1.159,3.535,76.0,10.65,38.24
-0.029,0.207,1.161,3.535,76.0,10.65,38.22
-0.087,0.145,1.161,3.535,76.0,10.65,38.19
0.251,0.331,1.159,3.535,76.0,10.65,38.15
-0.044,0.29,1.161,3.533,76.0,10.65,38.14
-0.062,0.249,1.161,3.533,76.0,10.65,38.1
0.0,0.166,1.159,3.533,84.0,10.65,38.05
0.153,0.207,1.159,3.533,84.0,10.65,38.0
0.062,0.166,1.159,3.531,84.0,10.65,37.97
-0.083,0.166,1.159,3.53,84.0,10.65,37.94
-0.072,0.145,1.159,3.53,84.0,10.65,37.87
-0.076,0.166,1.161,3.53,84.0,10.65,37.73
-0.057,0.186,1.161,3.53,84.0,10.65,37.61
-0.049,0.166,1.159,3.53,84.0,10.65,37.51
-0.114,0.166,1.161,3.529,84.0,10.65,37.42
0.348,0.518,1.158,3.528,84.0,10.65,37.36
-0.08,0.186,1.158,3.528,84.0,10.65,37.28
-0.039,0.186,1.161,3.528,84.0,10.65,37.2
0.071,0.186,1.158,3.528,80.0,10.65,37.12
0.158,0.186,1.158,3.526,80.0,10.65,37.05
-0.063,0.186,1.158,3.526,80.0,10.65,36.96
-0.082,0.207,1.158,3.525,80.0,10.65,36.89
-0.075,0.186,1.158,3.525,80.0,10.65,36.8
-0.087,0.166,1.158,3.525,80.0,10.65,36.68
-0.081,0.186,1.158,3.523,80.0,10.65,36.61
-0.027,0.145,1.158,3.523,80.0,10.65,36.57
-0.102,0.207,1.158,3.523,80.0,10.65,36.57
0.334,0.477,1.158,3.523,80.0,10.65,36.57
-0.081,0.186,1.158,3.523,80.0,10.65,36.57
-0.056,0.166,1.158,3.523,80.0,10.65,36.58
0.022,0.186,1.158,3.523,75.0,10.65,36.59
0.177,0.186,1.158,3.52,75.0,10.65,36.59
-0.01,0.186,1.158,3.52,75.0,10.65,36.59
-0.084,0.186,1.158,3.52,75.0,10.65,36.59
-0.072,0.166,1.158,3.52,75.0,10.65,36.58
-0.08,0.166,1.158,3.52,75.0,10.65,36.53
-0.086,0.207,1.158,3.518,75.0,10.65,36.49
-0.084,0.124,1.158,3.518,75.0,10.65,36.47
-0.08,0.207,1.158,3.518,75.0,10.65,36.48
-0.049,0.186,1.158,3.518,75.0,10.65,36.49
-0.047,0.207,1.158,3.518,75.0,10.65,36.52
-0.053,0.249,1.158,3.516,75.0,10.65,36.53
0.314,0.435,1.158,3.515,75.0,10.65,36.58
-0.066,0.186,1.158,3.515,75.0,10.65,36.63
-0.023,0.166,1.158,3.515,75.0,10.65,36.69
0.099,0.207,1.158,3.515,64.0,10.65,36.76
0.16,0.207,1.158,3.513,64.0,10.65,36.85
-0.064,0.186,1.156,3.513,64.0,10.65,36.94
-0.08,0.166,1.156,3.513,64.0,10.65,37.02
-0.089,0.249,1.156,3.513,64.0,10.65,37.06
-0.095,0.29,1.156,3.513,64.0,10.65,37.11
-0.08,0.186,1.156,3.51,64.0,10.65,37.2
-0.056,0.207,1.156,3.51,64.0,10.65,37.3
-0.121,0.228,1.156,3.51,64.0,10.65,37.44
0.292,0.331,1.156,3.51,64.0,10.65,37.65
-0.088,0.186,1.156,3.51,64.0,10.65,37.66
-0.053,0.186,1.156,3.51,64.0,10.65,37.77
0.052,0.207,1.156,3.508,75.0,10.65,37.9
0.166,0.166,1.156,3.508,75.0,10.65,38.04
-0.056,0.166,1.156,3.508,75.0,10.65,38.16
-0.097,0.186,1.156,3.508,75.0,10.65,38.25
-0.082,0.207,1.156,3.505,75.0,10.65,38.3
-0.081,0.166,1.156,3.508,75.0,10.63,38.29
-0.049,0.207,1.156,3.505,75.0,10.65,38.3
-0.111,0.145,1.156,3.505,75.0,10.65,38.29
0.293,0.394,1.156,3.505,75.0,10.65,38.29
-0.095,0.186,1.156,3.505,75.0,10.65,38.26
-0.055,0.186,1.156,3.505,75.0,10.63,38.21
0.035,0.145,1.156,3.503,83.0,10.65,38.15
0.172,0.166,1.156,3.503,83.0,10.65,38.13
-0.036,0.166,1.156,3.503,83.0,10.63,38.09
-0.088,0.228,1.156,3.503,83.0,10.65,38.05
-0.07,0.124,1.156,3.5,83.0,10.65,37.97
-0.081,0.145,1.156,3.5,83.0,10.65,37.85
-0.063,0.145,1.156,3.5,83.0,10.63,37.74
-0.035,0.207,1.156,3.5,83.0,10.65,37.64
-0.097,0.166,1.156,3.5,83.0,10.65,37.57
0.35,0.456,1.156,3.5,83.0,10.63,37.51
-0.07,0.166,1.156,3.498,83.0,10.63,37.44
-0.036,0.207,1.156,3.498,83.0,10.63,37.35
0.06,0.269,1.156,3.498,77.0,10.63,37.28
0.002,0.249,1.155,3.498,77.0,10.63,37.22
-0.057,0.228,1.154,3.498,77.0,10.65,37.13
-0.071,0.145,1.156,3.498,77.0,10.63,37.06
-0.058,0.166,1.156,3.495,77.0,10.63,36.95
-0.069,0.186,1.156,3.495,77.0,10.63,36.82
-0.074,0.145,1.154,3.495,77.0,10.63,36.67
-0.073,0.145,1.154,3.495,77.0,10.63,36.66
-0.029,0.166,1.156,3.495,77.0,10.63,36.63
-0.059,0.145,1.154,3.494,77.0,10.63,36.63
-0.063,0.352,1.154,3.493,77.0,10.63,36.61
-0.058,0.249,1.154,3.493,77.0,10.63,36.61
-0.045,0.186,1.154,3.493,77.0,10.63,36.61
0.006,0.166,1.154,3.493,77.0,10.63,36.63
0.151,0.124,1.154,3.493,77.0,10.63,36.63
0.128,0.166,1.154,3.49,77.0,10.63,36.64
-0.061,0.207,1.154,3.49,77.0,10.63,36.64
-0.057,0.166,1.154,3.49,77.0,10.63,36.63
-0.06,0.145,1.154,3.49,77.0,10.63,36.57
-0.073,0.207,1.154,3.49,77.0,10.63,36.52
-0.076,0.166,1.154,3.49,77.0,10.63,36.51
-0.076,0.207,1.154,3.489,77.0,10.63,36.5
-0.031,0.207,1.154,3.488,77.0,10.63,36.53
-0.084,0.186,1.154,3.488,77.0,10.63,36.56
0.345,0.394,1.154,3.488,77.0,10.63,36.61
-0.077,0.249,1.154,3.488,77.0,10.63,36.67
-0.052,0.249,1.154,3.488,77.0,10.63,36.74
0.016,0.249,1.154,3.485,77.0,10.63,36.84
0.18,0.228,1.154,3.485,77.0,10.63,36.95
0.032,0.207,1.154,3.485,77.0,10.63,37.06
-0.085,0.207,1.154,3.485,77.0,10.63,37.17
-0.072,0.228,1.154,3.485,77.0,10.63,37.26
-0.077,0.145,1.154,3.484,77.0,10.63,37.3
-0.085,0.166,1.154,3.484,77.0,10.63,37.38
-0.038,0.166,1.154,3.483,77.0,10.63,37.46
-0.081,0.166,1.154,3.483,77.0,10.63,37.6
0.305,0.331,1.154,3.483,77.0,10.63,37.71
-0.076,0.207,1.152,3.483,77.0,10.63,37.79
-0.051,0.228,1.151,3.48,77.0,10.63,37.88
0.013,0.186,1.151,3.48,77.0,10.63,37.93
0.174,0.166,1.151,3.48,77.0,10.63,37.96
0.049,0.186,1.151,3.48,77.0,10.63,37.93
-0.086,0.228,1.151,3.48,77.0,10.63,37.91
-0.073,0.228,1.151,3.479,77.0,10.63,37.86
-0.079,0.166,1.154,3.478,77.0,10.63,37.75
-0.089,0.166,1.151,3.478,77.0,10.63,37.66
-0.075,0.186,1.151,3.478,77.0,10.63,37.57
-0.093,0.166,1.151,3.478,77.0,10.62,37.52
0.023,0.331,1.151,3.478,77.0,10.62,37.47
0.348,0.435,1.151,3.475,77.0,10.63,37.41
-0.079,0.186,1.151,3.475,77.0,10.62,37.35
-0.041,0.186,1.151,3.475,74.0,10.62,37.28
0.066,0.145,1.151,3.475,74.0,10.63,37.18
0.161,0.145,1.151,3.474,74.0,10.63,37.17
-0.068,0.166,1.151,3.474,74.0,10.62,37.12
-0.093,0.228,1.151,3.474,74.0,10.62,37.05
-0.086,0.207,1.151,3.473,74.0,10.62,36.94
-0.097,0.186,1.151,3.473,74.0,10.62,36.8
-0.101,0.124,1.151,3.473,74.0,10.62,36.72
-0.097,0.145,1.151,3.471,74.0,10.62,36.66
-0.094,0.166,1.151,3.47,74.0,10.62,36.64
-0.053,0.207,1.151,3.47,74.0,10.62,36.63
-0.079,0.186,1.151,3.47,74.0,10.62,36.61
0.306,0.394,1.151,3.47,74.0,10.62,36.6
-0.022,0.29,1.151,3.47,74.0,10.62,36.6
-0.048,0.145,1.151,3.468,74.0,10.62,36.61
0.01,0.186,1.151,3.468,63.0,10.62,36.61
0.164,0.166,1.151,3.468,63.0,10.62,36.61
0.108,0.166,1.151,3.468,63.0,10.62,36.61
-0.063,0.166,1.151,3.468,63.0,10.62,36.62
-0.054,0.166,1.151,3.465,63.0,10.62,36.6
-0.056,0.166,1.151,3.465,63.0,10.62,36.55
-0.064,0.186,1.151,3.465,63.0,10.62,36.51
-0.065,0.249,1.151,3.465,63.0,10.62,36.49
-0.068,0.207,1.151,3.465,63.0,10.62,36.49
-0.062,0.228,1.151,3.465,63.0,10.62,36.49
-0.024,0.186,1.151,3.464,63.0,10.62,36.51
-0.086,0.186,1.151,3.464,63.0,10.62,36.52
0.368,0.435,1.151,3.463,63.0,10.62,36.55
-0.059,0.186,1.149,3.463,63.0,10.62,36.61
-0.039,0.145,1.151,3.463,63.0,10.62,36.69
0.046,0.166,1.151,3.461,64.0,10.62,36.78
0.169,0.186,1.149,3.46,64.0,10.62,36.89
-0.053,0.186,1.151,3.46,64.0,10.62,37.0
-0.116,0.207,1.15,3.46,64.0,10.62,37.1
-0.11,0.145,1.149,3.46,64.0,10.62,37.18
-0.125,0.207,1.149,3.458,64.0,10.62,37.22
-0.131,0.186,1.149,3.46,64.0,10.62,37.32
-0.114,0.228,1.149,3.458,64.0,10.62,37.43
-0.098,0.145,1.149,3.458,64.0,10.62,37.55
-0.128,0.186,1.149,3.458,64.0,10.62,37.65
0.255,0.477,1.149,3.458,64.0,10.62,37.74
-0.11,0.373,1.149,3.455,64.0,10.62,37.83
-0.067,0.207,1.149,3.458,64.0,10.62,37.93
0.051,0.207,1.149,3.455,72.0,10.62,37.99
0.125,0.186,1.149,3.455,72.0,10.62,38.0
-0.099,0.207,1.149,3.455,72.0,10.62,37.98
-0.114,0.186,1.149,3.455,72.0,10.62,37.95
-0.107,0.186,1.149,3.455,72.0,10.62,37.86
-0.117,0.145,1.149,3.453,72.0,10.62,37.76
-0.107,0.186,1.149,3.453,72.0,10.62,37.68
-0.073,0.166,1.149,3.453,72.0,10.62,37.61
-0.131,0.186,1.149,3.453,72.0,10.62,37.56
0.316,0.456,1.149,3.453,72.0,10.62,37.51
-0.097,0.166,1.149,3.45,72.0,10.62,37.45
-0.057,0.186,1.149,3.45,72.0,10.62,37.38
0.046,0.186,1.149,3.45,76.0,10.61,37.31
0.154,0.166,1.149,3.45,76.0,10.62,37.26
-0.068,0.207,1.149,3.45,76.0,10.62,37.2
-0.1,0.186,1.149,3.45,76.0,10.62,37.14
-0.086,0.166,1.149,3.45,76.0,10.62,37.05
-0.092,0.124,1.149,3.448,76.0,10.62,36.91
-0.092,0.186,1.149,3.448,76.0,10.62,36.81
-0.086,0.186,1.147,3.448,76.0,10.62,36.75
-0.037,0.166,1.146,3.448,76.0,10.62,36.7
-0.077,0.145,1.146,3.447,76.0,10.62,36.68
0.361,0.518,1.146,3.446,76.0,10.62,36.65
-0.058,0.186,1.146,3.446,76.0,10.62,36.63
-0.036,0.186,1.146,3.446,76.0,10.62,36.63
0.031,0.207,1.146,3.446,70.0,10.62,36.63
0.189,0.166,1.146,3.446,70.0,10.62,36.63
0.045,0.166,1.146,3.443,70.0,10.62,36.63
-0.071,0.207,1.146,3.443,70.0,10.62,36.64
-0.058,0.166,1.146,3.443,70.0,10.62,36.62
-0.067,0.166,1.146,3.443,70.0,10.62,36.56
-0.07,0.166,1.146,3.443,70.0,10.62,36.51
-0.068,0.145,1.146,3.442,70.0,10.62,36.49
-0.044,0.207,1.146,3.441,70.0,10.62,36.49
-0.043,0.207,1.146,3.442,70.0,10.61,36.52
0.042,0.311,1.146,3.441,70.0,10.62,36.53
0.255,0.373,1.146,3.441,70.0,10.62,36.53
-0.048,0.186,1.146,3.441,70.0,10.61,36.54
-0.004,0.186,1.146,3.441,70.0,10.61,36.54
0.122,0.207,1.146,3.438,68.0,10.61,36.58
0.146,0.166,1.146,3.438,68.0,10.62,36.63
-0.071,0.186,1.146,3.438,68.0,10.61,36.69
-0.077,0.207,1.146,3.438,68.0,10.61,36.76
-0.076,0.207,1.146,3.438,68.0,10.62,36.81
-0.091,0.249,1.146,3.436,68.0,10.61,36.85
-0.083,0.186,1.146,3.437,68.0,10.61,36.94
-0.061,0.207,1.146,3.436,68.0,10.61,37.06
-0.112,0.186,1.146,3.436,68.0,10.61,37.22
0.314,0.497,1.146,3.436,68.0,10.61,37.35
-0.076,0.228,1.146,3.436,68.0,10.61,37.48
-0.035,0.166,1.146,3.434,68.0,10.61,37.6
0.077,0.207,1.146,3.434,76.0,10.61,37.72
0.167,0.145,1.146,3.433,76.0,10.61,37.85
-0.059,0.166,1.146,3.433,76.0,10.61,37.96
-0.081,0.186,1.146,3.433,76.0,10.61,38.06
-0.072,0.207,1.146,3.432,76.0,10.61,38.11
-0.076,0.186,1.146,3.432,76.0,10.61,38.14
-0.042,0.207,1.146,3.431,76.0,10.61,38.18
-0.094,0.207,1.146,3.431,76.0,10.61,38.19
0.316,0.435,1.146,3.431,76.0,10.61,38.19
-0.065,0.249,1.145,3.429,76.0,10.61,38.15
-0.029,0.186,1.146,3.428,76.0,10.61,38.1
0.063,0.207,1.146,3.428,82.0,10.61,38.02
0.191,0.145,1.145,3.428,82.0,10.61,37.97
-0.019,0.166,1.144,3.428,82.0,10.61,37.92
-0.067,0.186,1.144,3.428,82.0,10.61,37.86
-0.055,0.269,1.146,3.427,82.0,10.61,37.77
-0.066,0.166,1.146,3.426,82.0,10.61,37.63
-0.058,0.228,1.146,3.426,82.0,10.61,37.53
-0.036,0.207,1.146,3.426,82.0,10.61,37.43
-0.093,0.186,1.146,3.426,82.0,10.61,37.36
0.374,0.456,1.145,3.426,82.0,10.61,37.29
-0.057,0.207,1.146,3.423,82.0,10.61,37.22
-0.018,0.207,1.145,3.423,82.0,10.61,37.13
0.087,0.166,1.145,3.423,78.0,10.61,37.06
0.176,0.145,1.145,3.423,78.0,10.61,36.98
-0.043,0.186,1.144,3.423,78.0,10.61,36.92
-0.064,0.166,1.144,3.423,78.0,10.61,36.86
-0.057,0.186,1.144,3.422,78.0,10.61,36.76
-0.071,0.166,1.144,3.421,78.0,10.61,36.63
-0.073,0.228,1.144,3.421,78.0,10.61,36.56
-0.063,0.145,1.144,3.421,78.0,10.6,36.53
-0.027,0.186,1.144,3.421,78.0,10.6,36.52
-0.088,0.145,1.144,3.419,78.0,10.6,36.52
0.384,0.456,1.144,3.419,78.0,10.6,36.52
-0.053,0.186,1.144,3.419,78.0,10.6,36.52
-0.021,0.166,1.144,3.418,78.0,10.6,36.53
0.07,0.166,1.144,3.418,71.0,10.6,36.54
0.189,0.166,1.144,3.418,71.0,10.6,36.54
-0.028,0.186,1.144,3.418,71.0,10.6,36.56
-0.071,0.207,1.144,3.418,71.0,10.6,36.56
-0.066,0.186,1.144,3.417,71.0,10.6,36.54
-0.083,0.186,1.141,3.416,71.0,10.6,36.48
-0.09,0.207,1.142,3.416,71.0,10.6,36.47
-0.09,0.186,1.142,3.416,71.0,10.6,36.49
-0.053,0.186,1.142,3.416,71.0,10.6,36.53
-0.099,0.207,1.141,3.416,71.0,10.6,36.6
0.316,0.394,1.141,3.413,71.0,10.6,36.65
-0.094,0.207,1.141,3.413,71.0,10.6,36.73
-0.073,0.166,1.141,3.413,71.0,10.6,36.8
-0.006,0.207,1.141,3.413,69.0,10.6,36.9
0.149,0.249,1.142,3.413,69.0,10.6,37.01
0.008,0.207,1.141,3.412,69.0,10.6,37.12
-0.113,0.186,1.141,3.411,69.0,10.6,37.22
-0.102,0.145,1.141,3.412,69.0,10.6,37.31
-0.108,0.207,1.141,3.411,69.0,10.6,37.34
-0.116,0.186,1.141,3.411,69.0,10.6,37.4
-0.073,0.228,1.141,3.411,69.0,10.6,37.49
-0.112,0.166,1.141,3.409,69.0,10.6,37.58
0.283,0.373,1.141,3.409,69.0,10.6,37.7
-0.105,0.228,1.141,3.408,69.0,10.6,37.78
-0.069,0.166,1.141,3.408,69.0,10.6,37.88
0.127,0.166,1.141,3.408,77.0,10.6,37.95
0.168,0.145,1.141,3.408,77.0,10.6,38.0
0.015,0.228,1.141,3.407,77.0,10.6,38.01
-0.097,0.186,1.141,3.406,77.0,10.6,38.0
-0.084,0.166,1.141,3.406,77.0,10.6,37.95
-0.09,0.145,1.144,3.406,77.0,10.6,37.78
-0.093,0.186,1.142,3.406,77.0,10.6,37.77
-0.049,0.166,1.141,3.406,77.0,10.6,37.7
-0.1,0.186,1.141,3.406,77.0,10.6,37.67
0.32,0.352,1.141,3.404,77.0,10.6,37.62
-0.084,0.207,1.141,3.403,77.0,10.6,37.58
-0.054,0.145,1.141,3.403,77.0,10.6,37.51
0.026,0.186,1.141,3.403,78.0,10.6,37.44
0.17,0.228,1.141,3.403,78.0,10.6,37.38
-0.027,0.166,1.141,3.403,78.0,10.6,37.31
-0.098,0.207,1.141,3.401,78.0,10.6,37.23
-0.082,0.166,1.141,3.401,78.0,10.6,37.12
-0.089,0.186,1.141,3.401,78.0,10.6,36.96
-0.094,0.145,1.141,3.401,78.0,10.6,36.84
-0.088,0.186,1.141,3.401,78.0,10.6,36.75
-0.046,0.124,1.141,3.401,78.0,10.6,36.7
-0.098,0.249,1.141,3.398,78.0,10.6,36.66
0.353,0.497,1.141,3.398,78.0,10.6,36.63
-0.068,0.186,1.141,3.398,78.0,10.6,36.62
-0.04,0.186,1.141,3.398,78.0,10.6,36.6
0.044,0.228,1.141,3.397,72.0,10.6,36.6
0.186,0.228,1.141,3.398,72.0,10.6,36.6
-0.015,0.207,1.141,3.396,72.0,10.6,36.61
-0.078,0.166,1.141,3.396,72.0,10.6,36.61
-0.066,0.207,1.141,3.396,72.0,10.6,36.59
-0.077,0.207,1.141,3.396,72.0,10.59,36.51
-0.081,0.186,1.141,3.396,72.0,10.6,36.48
-0.079,0.186,1.141,3.393,72.0,10.6,36.47
-0.075,0.166,1.141,3.393,72.0,10.6,36.47
-0.036,0.207,1.141,3.393,72.0,10.6,36.5
-0.076,0.207,1.141,3.393,72.0,10.6,36.52
0.347,0.414,1.141,3.393,72.0,10.6,36.54
-0.068,0.269,1.141,3.393,72.0,10.6,36.59
-0.049,0.186,1.141,3.393,72.0,10.6,36.66
0.013,0.145,1.141,3.393,65.0,10.6,36.76
0.169,0.186,1.14,3.391,65.0,10.6,36.85
0.049,0.207,1.14,3.392,65.0,10.6,36.95
-0.087,0.145,1.141,3.391,65.0,10.6,37.06
-0.08,0.207,1.14,3.391,65.0,10.6,37.14
-0.088,0.145,1.141,3.391,65.0,10.6,37.19
-0.098,0.207,1.141,3.391,65.0,10.6,37.27
-0.059,0.207,1.141,3.389,65.0,10.6,37.36
-0.101,0.166,1.139,3.388,65.0,10.6,37.48
0.285,0.373,1.141,3.388,65.0,10.6,37.59
-0.096,0.207,1.139,3.388,65.0,10.6,37.68
-0.065,0.145,1.141,3.388,65.0,10.6,37.78
-0.003,0.228,1.139,3.388,77.0,10.6,37.89
0.154,0.166,1.139,3.387,77.0,10.6,37.99
0.03,0.249,1.139,3.386,77.0,10.6,38.03
-0.099,0.207,1.141,3.386,77.0,10.6,38.01
-0.084,0.186,1.14,3.386,77.0,10.6,37.97
-0.092,0.145,1.139,3.386,77.0,10.6,37.89
-0.082,0.186,1.14,3.386,77.0,10.6,37.81
-0.068,0.269,1.139,3.386,77.0,10.6,37.75
-0.118,0.207,1.139,3.386,77.0,10.6,37.72
0.317,0.518,1.139,3.383,77.0,10.6,37.7
-0.083,0.166,1.139,3.383,77.0,10.6,37.68
-0.041,0.186,1.139,3.383,77.0,10.6,37.65
0.073,0.145,1.139,3.383,80.0,10.6,37.62
0.146,0.186,1.139,3.383,80.0,10.6,37.58
-0.075,0.228,1.139,3.381,80.0,10.6,37.51
-0.092,0.145,1.139,3.381,80.0,10.6,37.43
-0.08,0.228,1.139,3.381,80.0,10.6,37.29
-0.09,0.186,1.139,3.381,80.0,10.6,37.13
-0.089,0.228,1.139,3.381,80.0,10.6,37.02
-0.05,0.249,1.139,3.381,80.0,10.6,36.91
-0.064,0.166,1.139,3.378,80.0,10.6,36.84
0.086,0.352,1.139,3.379,80.0,10.6,36.78
0.204,0.414,1.139,3.378,80.0,10.6,36.72
-0.055,0.186,1.139,3.378,80.0,10.6,36.67
-0.005,0.145,1.139,3.378,72.0,10.6,36.65
0.134,0.166,1.139,3.378,72.0,10.6,36.64
0.125,0.166,1.139,3.377,72.0,10.6,36.63
-0.071,0.145,1.139,3.376,72.0,10.6,36.62
-0.066,0.186,1.139,3.378,72.0,10.6,36.6
-0.065,0.145,1.139,3.376,72.0,10.6,36.55
-0.077,0.166,1.139,3.376,72.0,10.6,36.48
-0.079,0.186,1.139,3.376,72.0,10.6,36.45
-0.037,0.269,1.137,3.376,72.0,10.6,36.44
-0.075,0.166,1.137,3.373,72.0,10.6,36.45
0.325,0.373,1.139,3.373,72.0,10.6,36.46
-0.048,0.29,1.139,3.373,72.0,10.6,36.47
-0.055,0.145,1.137,3.373,72.0,10.6,36.48
0.0,0.186,1.136,3.373,72.0,10.6,36.49
0.156,0.186,1.136,3.373,72.0,10.6,36.53
0.052,0.249,1.136,3.372,72.0,10.6,36.58
-0.094,0.207,1.136,3.371,72.0,10.6,36.64
-0.088,0.228,1.136,3.371,72.0,10.6,36.68
-0.095,0.186,1.136,3.371,72.0,10.59,36.71
-0.106,0.228,1.136,3.371,72.0,10.59,36.74
-0.084,0.207,1.136,3.371,72.0,10.59,36.81
-0.085,0.166,1.136,3.371,72.0,10.6,36.9
-0.03,0.331,1.136,3.369,72.0,10.6,37.03
0.214,0.352,1.136,3.371,72.0,10.59,37.12
-0.087,0.207,1.136,3.368,72.0,10.6,37.23
-0.039,0.29,1.136,3.368,72.0,10.59,37.35
0.095,0.186,1.136,3.368,75.0,10.59,37.47
0.109,0.186,1.136,3.368,75.0,10.59,37.58
-0.099,0.145,1.136,3.368,75.0,10.6,37.71
-0.1,0.207,1.136,3.367,75.0,10.59,37.82
-0.098,0.186,1.136,3.367,75.0,10.59,37.87
-0.094,0.186,1.136,3.366,75.0,10.59,37.92
-0.079,0.166,1.136,3.366,75.0,10.6,37.97
-0.122,0.186,1.136,3.366,75.0,10.59,38.02
0.279,0.414,1.136,3.366,75.0,10.59,38.11
-0.092,0.228,1.136,3.364,75.0,10.59,38.14
-0.049,0.186,1.136,3.363,75.0,10.59,38.18
0.072,0.166,1.136,3.363,83.0,10.59,38.2
0.128,0.228,1.136,3.363,83.0,10.59,38.23
-0.081,0.166,1.136,3.363,83.0,10.59,38.23
-0.091,0.166,1.136,3.363,83.0,10.59,38.21
-0.081,0.145,1.136,3.362,83.0,10.59,38.12
-0.091,0.166,1.136,3.361,83.0,10.59,38.03
-0.052,0.186,1.136,3.361,83.0,10.59,37.96
-0.102,0.145,1.136,3.361,83.0,10.59,37.91
0.319,0.394,1.136,3.361,83.0,10.59,37.87
-0.081,0.186,1.136,3.361,83.0,10.59,37.83
-0.048,0.145,1.136,3.361,83.0,10.59,37.78
0.035,0.186,1.136,3.36,81.0,10.59,37.73
0.179,0.166,1.136,3.361,81.0,10.59,37.69
-0.016,0.207,1.136,3.359,81.0,10.59,37.66
-0.077,0.186,1.136,3.359,81.0,10.59,37.61
-0.061,0.166,1.136,3.359,81.0,10.59,37.54
-0.067,0.124,1.136,3.359,81.0,10.59,37.4
-0.07,0.207,1.136,3.359,81.0,10.59,37.28
-0.025,0.145,1.136,3.359,81.0,10.59,37.2
-0.076,0.166,1.136,3.359,81.0,10.59,37.14
0.364,0.539,1.136,3.356,81.0,10.59,37.09
-0.054,0.228,1.136,3.356,81.0,10.59,37.03
-0.027,0.166,1.136,3.356,81.0,10.59,36.97
0.051,0.207,1.136,3.356,77.0,10.57,36.91
0.202,0.228,1.136,3.356,77.0,10.57,36.86
0.017,0.186,1.136,3.355,77.0,10.57,36.81
-0.054,0.228,1.136,3.356,77.0,10.57,36.76
-0.042,0.186,1.136,3.355,77.0,10.57,36.69
-0.052,0.166,1.136,3.354,77.0,10.57,36.6
-0.057,0.207,1.136,3.354,77.0,10.57,36.52
-0.055,0.145,1.136,3.354,77.0,10.59,36.49
-0.011,0.145,1.136,3.354,77.0,10.59,36.49
-0.057,0.124,1.136,3.354,77.0,10.59,36.49
0.382,0.435,1.136,3.351,77.0,10.59,36.49
-0.039,0.207,1.136,3.351,77.0,10.59,36.49
-0.018,0.186,1.136,3.351,77.0,10.59,36.51
0.049,0.166,1.136,3.351,71.0,10.59,36.52
0.202,0.166,1.136,3.351,71.0,10.59,36.53
0.049,0.166,1.136,3.351,71.0,10.59,36.54
-0.058,0.186,1.136,3.351,71.0,10.59,36.54
-0.049,0.145,1.136,3.351,71.0,10.59,36.53
-0.062,0.228,1.136,3.349,71.0,10.59,36.48
-0.071,0.166,1.136,3.349,71.0,10.59,36.46
-0.074,0.228,1.135,3.349,71.0,10.59,36.47
-0.053,0.207,1.136,3.349,71.0,10.59,36.52
-0.056,0.207,1.136,3.349,71.0,10.59,36.6
0.042,0.394,1.134,3.346,71.0,10.59,36.68
0.216,0.414,1.135,3.347,71.0,10.59,36.76
-0.055,0.186,1.135,3.346,71.0,10.59,36.88
-0.008,0.207,1.134,3.346,68.0,10.59,37.0
0.125,0.166,1.136,3.346,68.0,10.59,37.12
0.139,0.166,1.135,3.346,68.0,10.59,37.25
-0.066,0.249,1.135,3.345,68.0,10.59,37.36
-0.067,0.228,1.134,3.346,68.0,10.59,37.45
-0.068,0.186,1.134,3.345,68.0,10.57,37.48
-0.076,0.186,1.135,3.344,68.0,10.57,37.52
-0.044,0.186,1.134,3.344,68.0,10.57,37.58
-0.065,0.186,1.134,3.344,68.0,10.57,37.66
0.181,0.331,1.134,3.344,68.0,10.57,37.75
0.065,0.269,1.134,3.342,68.0,10.57,37.83
-0.043,0.186,1.134,3.341,68.0,10.57,37.89
0.011,0.186,1.134,3.341,78.0,10.57,37.93
0.155,0.186,1.134,3.341,78.0,10.57,37.97
0.11,0.186,1.134,3.341,78.0,10.57,37.99
-0.062,0.186,1.134,3.341,78.0,10.57,37.98
-0.053,0.228,1.134,3.341,78.0,10.57,37.95
-0.058,0.186,1.134,3.339,78.0,10.57,37.85
-0.067,0.166,1.134,3.34,78.0,10.57,37.77
-0.023,0.186,1.134,3.339,78.0,10.59,37.7
-0.07,0.166,1.134,3.339,78.0,10.59,37.65
0.349,0.518,1.134,3.339,78.0,10.59,37.63
-0.063,0.249,1.134,3.339,78.0,10.57,37.6
-0.031,0.207,1.134,3.339,78.0,10.57,37.58
0.03,0.124,1.134,3.339,79.0,10.57,37.53
0.183,0.166,1.134,3.337,79.0,10.59,37.49
0.034,0.249,1.134,3.336,79.0,10.59,37.45
-0.074,0.249,1.134,3.336,79.0,10.59,37.39
-0.061,0.166,1.134,3.336,79.0,10.57,37.3
-0.068,0.145,1.134,3.336,79.0,10.57,37.18
-0.076,0.207,1.134,3.336,79.0,10.57,37.08
-0.059,0.186,1.134,3.336,79.0,10.57,37.0
-0.041,0.145,1.134,3.336,79.0,10.57,36.94
-0.097,0.186,1.134,3.335,79.0,10.57,36.89
0.373,0.435,1.134,3.334,79.0,10.57,36.85
-0.064,0.166,1.134,3.334,79.0,10.57,36.81
-0.026,0.186,1.134,3.334,79.0,10.57,36.76
0.079,0.249,1.134,3.334,74.0,10.57,36.73
0.164,0.145,1.134,3.334,74.0,10.57,36.71
-0.058,0.145,1.134,3.334,74.0,10.57,36.7
-0.082,0.166,1.134,3.331,74.0,10.57,36.68
-0.079,0.186,1.134,3.331,74.0,10.57,36.62
-0.094,0.186,1.134,3.331,74.0,10.57,36.55
-0.1,0.186,1.134,3.331,74.0,10.57,36.51
-0.086,0.228,1.134,3.331,74.0,10.57,36.49
-0.069,0.186,1.134,3.33,74.0,10.57,36.49
-0.113,0.186,1.132,3.33,74.0,10.57,36.49
0.336,0.394,1.134,3.329,74.0,10.57,36.49
-0.092,0.207,1.131,3.329,74.0,10.57,36.52
-0.053,0.186,1.134,3.329,74.0,10.57,36.52
0.058,0.186,1.131,3.329,71.0,10.57,36.53
0.13,0.186,1.134,3.329,71.0,10.57,36.54
-0.095,0.207,1.131,3.329,71.0,10.59,36.56
-0.116,0.166,1.131,3.327,71.0,10.59,36.59
-0.111,0.186,1.131,3.327,71.0,10.59,36.6
-0.125,0.186,1.131,3.327,71.0,10.59,36.62
-0.125,0.228,1.131,3.326,71.0,10.59,36.69
-0.082,0.228,1.131,3.326,71.0,10.59,36.79
-0.137,0.228,1.131,3.326,71.0,10.59,36.92
0.265,0.394,1.131,3.326,71.0,10.59,37.04
-0.125,0.228,1.131,3.326,71.0,10.59,37.14
-0.097,0.186,1.131,3.324,71.0,10.59,37.26
-0.012,0.186,1.131,3.324,75.0,10.59,37.38
0.126,0.145,1.131,3.324,75.0,10.59,37.5
-0.071,0.207,1.131,3.324,75.0,10.59,37.63
-0.144,0.186,1.131,3.324,75.0,10.59,37.74
-0.129,0.207,1.131,3.324,75.0,10.59,37.82
-0.138,0.186,1.131,3.324,75.0,10.57,37.86
-0.097,0.29,1.131,3.324,75.0,10.59,37.91
0.246,0.331,1.131,3.321,75.0,10.59,37.99
0.25,0.394,1.131,3.322,75.0,10.57,38.09
-0.122,0.269,1.131,3.321,75.0,10.57,38.15
-0.1,0.166,1.131,3.321,82.0,10.57,38.19
-0.032,0.207,1.131,3.321,82.0,10.57,38.22
0.118,0.166,1.131,3.321,82.0,10.57,38.24
0.007,0.207,1.131,3.321,82.0,10.57,38.25
-0.113,0.186,1.131,3.321,82.0,10.57,38.23
-0.098,0.228,1.131,3.319,82.0,10.57,38.18
-0.103,0.145,1.131,3.319,82.0,10.57,38.09
-0.071,0.228,1.131,3.319,82.0,10.57,38.01
-0.1,0.186,1.131,3.319,82.0,10.57,37.94
0.161,0.373,1.131,3.319,82.0,10.57,37.9
0.045,0.269,1.131,3.319,82.0,10.57,37.87
-0.07,0.166,1.131,3.319,82.0,10.57,37.84
-0.01,0.186,1.131,3.316,82.0,10.57,37.8
0.049,0.145,1.131,3.316,82.0,10.57,37.76
0.019,0.166,1.131,3.316,82.0,10.57,37.71
-0.077,0.166,1.131,3.316,82.0,10.57,37.67
-0.066,0.166,1.131,3.316,82.0,10.57,37.62
-0.066,0.186,1.131,3.316,82.0,10.57,37.51
-0.07,0.145,1.131,3.316,82.0,10.57,37.34
-0.023,0.207,1.131,3.316,82.0,10.57,37.34
-0.08,0.145,1.131,3.315,82.0,10.57,37.28
0.352,0.414,1.131,3.314,82.0,10.57,37.25
-0.063,0.166,1.131,3.314,82.0,10.57,37.19
-0.033,0.186,1.131,3.314,82.0,10.57,37.13
0.044,0.269,1.131,3.314,80.0,10.57,37.06
0.19,0.166,1.131,3.314,80.0,10.57,37.01
0.008,0.166,1.131,3.314,80.0,10.57,36.95
-0.062,0.186,1.131,3.314,80.0,10.57,36.89
-0.05,0.124,1.131,3.314,80.0,10.57,36.8
-0.058,0.145,1.131,3.314,80.0,10.57,36.68
-0.061,0.145,1.131,3.314,80.0,10.57,36.59
-0.061,0.166,1.131,3.314,80.0,10.57,36.54
-0.056,0.186,1.131,3.312,80.0,10.57,36.52
-0.053,0.186,1.131,3.311,80.0,10.57,36.52
-0.012,0.145,1.131,3.311,80.0,10.57,36.52
-0.051,0.166,1.131,3.311,80.0,10.57,36.52
0.382,0.456,1.131,3.311,80.0,10.57,36.53
-0.038,0.207,1.131,3.311,80.0,10.57,36.54
-0.022,0.186,1.131,3.311,80.0,10.57,36.55
0.036,0.207,1.131,3.309,61.0,10.57,36.57
0.188,0.166,1.131,3.309,61.0,10.57,36.58
0.067,0.166,1.131,3.309,61.0,10.57,36.59
-0.068,0.269,1.131,3.309,61.0,10.57,36.62
-0.063,0.186,1.131,3.309,61.0,10.57,36.65
-0.078,0.186,1.131,3.309,61.0,10.57,36.64
-0.088,0.166,1.131,3.309,61.0,10.56,36.68
-0.091,0.228,1.131,3.309,61.0,10.56,36.74
-0.088,0.186,1.13,3.306,61.0,10.56,36.84
-0.048,0.186,1.13,3.306,61.0,10.56,36.97
-0.104,0.145,1.13,3.306,61.0,10.56,37.07
0.318,0.414,1.129,3.306,61.0,10.56,37.18
-0.076,0.207,1.131,3.306,61.0,10.56,37.29
-0.046,0.186,1.129,3.306,61.0,10.56,37.41
0.038,0.207,1.129,3.305,67.0,10.56,37.55
0.176,0.186,1.129,3.306,67.0,10.56,37.66
-0.025,0.166,1.129,3.305,67.0,10.56,37.76
-0.093,0.186,1.129,3.304,67.0,10.56,37.85
-0.082,0.186,1.129,3.304,67.0,10.56,37.9
-0.092,0.186,1.129,3.304,67.0,10.55,37.91
-0.075,0.186,1.129,3.304,67.0,10.56,37.95
-0.064,0.228,1.129,3.301,67.0,10.56,38.02
-0.102,0.249,1.129,3.301,67.0,10.56,38.11
0.294,0.435,1.129,3.301,67.0,10.56,38.2
-0.073,0.207,1.129,3.301,67.0,10.56,38.24
-0.029,0.166,1.129,3.301,67.0,10.56,38.26
0.089,0.186,1.129,3.301,79.0,10.55,38.28
0.147,0.186,1.129,3.301,79.0,10.56,38.29
-0.071,0.249,1.129,3.3,79.0,10.56,38.29
-0.083,0.186,1.129,3.301,79.0,10.56,38.28
-0.077,0.166,1.129,3.299,79.0,10.55,38.2
-0.086,0.166,1.129,3.299,79.0,10.55,38.12
-0.041,0.145,1.129,3.299,79.0,10.56,38.05
-0.102,0.186,1.129,3.299,79.0,10.55,37.98
0.317,0.269,1.129,3.299,79.0,10.55,37.96
-0.084,0.207,1.129,3.299,79.0,10.55,37.93
-0.048,0.269,1.129,3.299,79.0,10.56,37.9
0.035,0.145,1.129,3.299,81.0,10.55,37.86
0.181,0.186,1.129,3.296,81.0,10.55,37.85
-0.015,0.186,1.129,3.296,81.0,10.55,37.82
-0.088,0.166,1.129,3.296,81.0,10.56,37.8
-0.073,0.166,1.129,3.296,81.0,10.55,37.74
-0.082,0.166,1.129,3.296,81.0,10.55,37.63
-0.087,0.207,1.129,3.294,81.0,10.55,37.56
-0.038,0.166,1.129,3.294,81.0,10.55,37.5
-0.093,0.166,1.129,3.294,81.0,10.55,37.47
0.336,0.373,1.127,3.294,81.0,10.55,37.45
-0.081,0.166,1.129,3.294,81.0,10.55,37.42
-0.049,0.186,1.129,3.294,81.0,10.55,37.39
0.025,0.207,1.127,3.294,77.0,10.55,37.37
0.179,0.228,1.129,3.294,77.0,10.55,37.35
0.0,0.186,1.129,3.291,77.0,10.55,37.31
-0.088,0.186,1.129,3.292,77.0,10.55,37.26
-0.076,0.145,1.129,3.291,77.0,10.55,37.19
-0.082,0.166,1.129,3.291,77.0,10.55,37.06
-0.089,0.145,1.127,3.291,77.0,10.55,36.95
-0.086,0.145,1.129,3.29,77.0,10.55,36.88
-0.042,0.207,1.126,3.289,77.0,10.55,36.82
-0.081,0.166,1.129,3.289,77.0,10.55,36.8
0.347,0.435,1.126,3.289,77.0,10.55,36.76
-0.06,0.249,1.126,3.289,77.0,10.55,36.71
-0.049,0.166,1.126,3.289,77.0,10.55,36.69
0.012,0.186,1.126,3.289,70.0,10.55,36.69
0.171,0.207,1.127,3.289,70.0,10.55,36.67
0.051,0.207,1.126,3.287,70.0,10.55,36.66
-0.084,0.186,1.126,3.287,70.0,10.55,36.65
-0.072,0.249,1.126,3.286,70.0,10.55,36.63
-0.075,0.207,1.127,3.286,70.0,10.55,36.56
-0.085,0.145,1.126,3.286,70.0,10.55,36.5
-0.086,0.228,1.126,3.286,70.0,10.55,36.48
-0.084,0.145,1.126,3.286,70.0,10.55,36.47
-0.062,0.228,1.126,3.284,70.0,10.55,36.48
-0.06,0.166,1.126,3.284,70.0,10.55,36.49
0.015,0.331,1.126,3.284,70.0,10.55,36.49
0.26,0.435,1.126,3.284,70.0,10.55,36.51
-0.062,0.207,1.126,3.284,70.0,10.55,36.52
-0.016,0.207,1.126,3.284,70.0,10.55,36.53
0.115,0.145,1.126,3.284,64.0,10.55,36.54
0.135,0.186,1.126,3.284,64.0,10.55,36.56
-0.081,0.166,1.126,3.284,64.0,10.55,36.57
-0.087,0.186,1.126,3.282,64.0,10.55,36.59
-0.087,0.207,1.126,3.282,64.0,10.55,36.58
-0.101,0.166,1.126,3.282,64.0,10.55,36.59
-0.107,0.186,1.126,3.281,64.0,10.55,36.63
-0.108,0.145,1.126,3.281,64.0,10.55,36.71
-0.067,0.186,1.126,3.281,64.0,10.55,36.8
-0.109,0.145,1.126,3.281,64.0,10.55,36.88
0.298,0.352,1.126,3.281,64.0,10.55,36.96
-0.099,0.207,1.126,3.28,64.0,10.55,37.05
-0.072,0.186,1.126,3.279,64.0,10.55,37.16
-0.006,0.145,1.126,3.279,68.0,10.55,37.27
0.158,0.166,1.126,3.279,68.0,10.55,37.39
0.033,0.166,1.126,3.279,68.0,10.55,37.49
-0.104,0.186,1.126,3.279,68.0,10.55,37.57
-0.092,0.166,1.126,3.279,68.0,10.55,37.63
-0.091,0.207,1.126,3.279,68.0,10.55,37.65
-0.081,0.207,1.126,3.279,68.0,10.55,37.7
-0.05,0.186,1.126,3.277,68.0,10.55,37.77
-0.107,0.166,1.126,3.276,68.0,10.55,37.85
0.294,0.331,1.126,3.276,68.0,10.55,37.94
-0.089,0.207,1.126,3.276,68.0,10.55,38.0
-0.049,0.186,1.126,3.276,68.0,10.55,38.01
0.035,0.186,1.126,3.276,78.0,10.55,38.02
0.186,0.166,1.126,3.276,78.0,10.55,38.04
-0.017,0.207,1.126,3.276,78.0,10.55,38.05
-0.09,0.186,1.126,3.274,78.0,10.55,38.05
-0.073,0.166,1.126,3.274,78.0,10.55,38.0
-0.084,0.124,1.126,3.274,78.0,10.55,37.92
-0.085,0.166,1.126,3.274,78.0,10.55,37.85
-0.038,0.186,1.126,3.274,78.0,10.55,37.8
-0.097,0.228,1.126,3.274,78.0,10.55,37.76
0.326,0.414,1.126,3.274,78.0,10.55,37.73
-0.082,0.228,1.126,3.272,78.0,10.55,37.69
-0.047,0.249,1.126,3.272,78.0,10.55,37.64
0.031,0.186,1.124,3.272,77.0,10.55,37.6
0.185,0.249,1.126,3.272,77.0,10.55,37.58
-0.009,0.228,1.124,3.272,77.0,10.55,37.53
-0.091,0.145,1.124,3.27,77.0,10.55,37.48
-0.078,0.145,1.124,3.269,77.0,10.55,37.41
-0.088,0.207,1.126,3.269,77.0,10.55,37.28
-0.095,0.207,1.124,3.269,77.0,10.55,37.19
-0.095,0.145,1.126,3.269,77.0,10.55,37.12
-0.09,0.186,1.125,3.269,77.0,10.55,37.06
-0.042,0.207,1.125,3.269,77.0,10.55,37.03
-0.086,0.249,1.125,3.269,77.0,10.55,36.98
0.359,0.435,1.125,3.268,77.0,10.55,36.92
-0.065,0.249,1.124,3.267,77.0,10.55,36.87
-0.038,0.145,1.126,3.267,77.0,10.55,36.83
0.032,0.145,1.126,3.267,65.0,10.55,36.79
0.195,0.207,1.125,3.267,65.0,10.55,36.75
0.054,0.166,1.125,3.267,65.0,10.55,36.73
-0.066,0.124,1.126,3.267,65.0,10.55,36.7
-0.054,0.124,1.125,3.267,65.0,10.55,36.65
-0.059,0.186,1.126,3.267,65.0,10.55,36.56
-0.067,0.145,1.126,3.265,65.0,10.55,36.5
-0.067,0.166,1.125,3.264,65.0,10.55,36.48
-0.064,0.166,1.124,3.264,65.0,10.55,36.47
-0.014,0.186,1.124,3.264,65.0,10.55,36.48
-0.066,0.186,1.126,3.264,65.0,10.55,36.48
0.37,0.414,1.124,3.264,65.0,10.55,36.49
-0.047,0.207,1.124,3.263,65.0,10.55,36.49
-0.024,0.186,1.124,3.262,65.0,10.54,36.51
0.046,0.249,1.125,3.262,67.0,10.55,36.52
0.206,0.186,1.124,3.262,67.0,10.55,36.53
0.043,0.228,1.124,3.262,67.0,10.55,36.54
-0.072,0.145,1.124,3.262,67.0,10.55,36.54
-0.061,0.166,1.124,3.262,67.0,10.55,36.53
-0.072,0.166,1.124,3.262,67.0,10.55,36.51
-0.082,0.186,1.125,3.262,67.0,10.55,36.51
-0.086,0.207,1.124,3.26,67.0,10.55,36.56
-0.046,0.145,1.124,3.26,67.0,10.55,36.63
-0.082,0.249,1.124,3.259,67.0,10.55,36.73
0.208,0.414,1.124,3.259,67.0,10.55,36.82
0.019,0.311,1.124,3.259,67.0,10.55,36.92
-0.067,0.207,1.124,3.259,67.0,10.55,37.05
-0.01,0.186,1.124,3.257,70.0,10.54,37.18
0.142,0.207,1.124,3.257,70.0,10.54,37.31
0.095,0.269,1.124,3.257,70.0,10.54,37.44
-0.089,0.166,1.124,3.257,70.0,10.55,37.56
-0.085,0.186,1.124,3.257,70.0,10.54,37.67
-0.086,0.186,1.124,3.257,70.0,10.54,37.72
-0.096,0.207,1.124,3.257,70.0,10.54,37.78
-0.048,0.207,1.124,3.257,70.0,10.55,37.87
-0.106,0.186,1.124,3.255,70.0,10.55,37.98
0.29,0.414,1.124,3.257,70.0,10.54,38.09
-0.102,0.269,1.124,3.254,70.0,10.54,38.17
-0.063,0.207,1.124,3.254,70.0,10.55,38.25
0.012,0.186,1.124,3.254,79.0,10.54,38.32
0.169,0.228,1.124,3.254,79.0,10.54,38.37
-0.001,0.166,1.124,3.253,79.0,10.54,38.39
-0.099,0.207,1.124,3.253,79.0,10.54,38.37
-0.085,0.166,1.124,3.254,79.0,10.54,38.32
-0.093,0.166,1.124,3.252,79.0,10.54,38.21
-0.062,0.166,1.124,3.252,79.0,10.54,38.12
-0.089,0.207,1.124,3.252,79.0,10.54,38.05
0.007,0.352,1.124,3.252,79.0,10.54,38.0
0.195,0.29,1.124,3.252,79.0,10.54,37.97
-0.077,0.186,1.122,3.252,79.0,10.54,37.93
-0.024,0.166,1.122,3.252,79.0,10.54,37.88
0.115,0.186,1.122,3.249,80.0,10.54,37.82
0.105,0.186,1.124,3.25,80.0,10.54,37.78
-0.09,0.186,1.124,3.249,80.0,10.54,37.73
-0.088,0.145,1.122,3.249,80.0,10.54,37.65
-0.083,0.166,1.121,3.249,80.0,10.54,37.51
-0.094,0.207,1.122,3.249,80.0,10.54,37.36
-0.092,0.186,1.122,3.249,80.0,10.54,37.26
-0.038,0.186,1.124,3.249,80.0,10.54,37.17
-0.088,0.145,1.121,3.248,80.0,10.54,37.1
0.347,0.373,1.121,3.247,80.0,10.54,37.02
-0.067,0.207,1.121,3.247,80.0,10.54,36.95
-0.049,0.145,1.122,3.247,80.0,10.54,36.87
0.015,0.186,1.121,3.247,73.0,10.54,36.81
0.176,0.207,1.121,3.247,73.0,10.52,36.77
0.065,0.207,1.121,3.247,73.0,10.52,36.73
-0.069,0.166,1.121,3.247,73.0,10.52,36.7
-0.053,0.145,1.121,3.244,73.0,10.52,36.66
-0.057,0.166,1.121,3.245,73.0,10.52,36.57
-0.065,0.186,1.121,3.244,73.0,10.52,36.49
-0.066,0.186,1.121,3.244,73.0,10.52,36.46
-0.057,0.207,1.121,3.244,73.0,10.52,36.46
-0.018,0.186,1.121,3.244,73.0,10.52,36.47
-0.079,0.186,1.121,3.244,73.0,10.52,36.47
0.386,0.456,1.121,3.243,73.0,10.52,36.47
-0.045,0.166,1.121,3.242,73.0,10.52,36.48
-0.015,0.186,1.121,3.242,73.0,10.52,36.49
0.075,0.145,1.121,3.242,67.0,10.52,36.51
0.211,0.186,1.121,3.242,67.0,10.52,36.52
-0.001,0.207,1.121,3.242,67.0,10.52,36.52
-0.056,0.145,1.121,3.242,67.0,10.52,36.52
-0.049,0.166,1.121,3.24,67.0,10.52,36.5
-0.063,0.186,1.121,3.24,67.0,10.52,36.44
-0.069,0.186,1.121,3.239,67.0,10.52,36.43
-0.069,0.207,1.121,3.239,67.0,10.52,36.45
-0.055,0.186,1.121,3.239,67.0,10.52,36.5
-0.035,0.249,1.121,3.239,67.0,10.52,36.55
-0.091,0.186,1.121,3.239,67.0,10.52,36.62
0.356,0.373,1.121,3.239,67.0,10.52,36.69
-0.06,0.228,1.121,3.238,67.0,10.52,36.79
-0.021,0.207,1.121,3.237,67.0,10.52,36.9
0.087,0.249,1.121,3.237,67.0,10.52,37.0
0.184,0.186,1.121,3.237,67.0,10.52,37.11
-0.042,0.145,1.121,3.237,67.0,10.52,37.21
-0.073,0.186,1.121,3.237,67.0,10.52,37.31
-0.067,0.166,1.121,3.237,67.0,10.52,37.36
-0.079,0.166,1.121,3.237,67.0,10.52,37.4
-0.061,0.145,1.121,3.237,67.0,10.52,37.48
-0.05,0.166,1.121,3.237,67.0,10.52,37.58
-0.093,0.186,1.121,3.235,67.0,10.52,37.72
0.312,0.394,1.121,3.235,67.0,10.52,37.83
-0.06,0.186,1.121,3.234,67.0,10.52,37.91
-0.017,0.186,1.121,3.234,67.0,10.52,38.0
0.1,0.145,1.121,3.234,77.0,10.52,38.08
0.17,0.207,1.121,3.234,77.0,10.52,38.17
-0.049,0.145,1.121,3.234,77.0,10.52,38.25
-0.064,0.166,1.121,3.234,77.0,10.52,38.29
-0.062,0.124,1.12,3.234,77.0,10.52,38.26
-0.065,0.228,1.121,3.233,77.0,10.52,38.21
-0.027,0.166,1.121,3.233,77.0,10.52,38.14
0.339,0.373,1.121,3.232,77.0,10.52,38.11
0.341,0.394,1.12,3.232,77.0,10.52,38.09
-0.063,0.166,1.12,3.232,77.0,10.52,38.06
-0.024,0.207,1.12,3.23,82.0,10.52,38.03
0.061,0.145,1.121,3.232,82.0,10.52,37.97
0.202,0.186,1.12,3.229,82.0,10.52,37.91
0.006,0.166,1.12,3.23,82.0,10.52,37.9
-0.059,0.124,1.12,3.229,82.0,10.52,37.86
-0.046,0.207,1.119,3.229,82.0,10.52,37.78
-0.056,0.145,1.121,3.229,82.0,10.52,37.66
-0.026,0.186,1.12,3.229,82.0,10.52,37.55
-0.037,0.145,1.12,3.229,82.0,10.52,37.46
-0.047,0.228,1.121,3.228,82.0,10.52,37.39
0.343,0.414,1.121,3.229,82.0,10.52,37.34
-0.044,0.207,1.12,3.228,82.0,10.52,37.28
0.002,0.186,1.119,3.227,82.0,10.52,37.2
0.126,0.166,1.119,3.227,80.0,10.52,37.13
0.168,0.207,1.119,3.227,80.0,10.52,37.07
-0.044,0.228,1.119,3.227,80.0,10.52,37.0
-0.05,0.186,1.119,3.227,80.0,10.52,36.91
-0.048,0.186,1.119,3.227,80.0,10.52,36.78
-0.059,0.207,1.119,3.225,80.0,10.52,36.65
-0.047,0.166,1.119,3.227,80.0,10.52,36.57
-0.01,0.166,1.119,3.225,80.0,10.52,36.51
-0.081,0.186,1.119,3.224,80.0,10.52,36.49
0.371,0.456,1.119,3.224,80.0,10.52,36.49
-0.053,0.186,1.119,3.224,80.0,10.52,36.49
-0.029,0.186,1.119,3.224,80.0,10.52,36.49
0.057,0.166,1.119,3.224,75.0,10.52,36.49
0.19,0.207,1.119,3.224,75.0,10.52,36.5
-0.019,0.186,1.119,3.224,75.0,10.52,36.52
-0.077,0.249,1.119,3.224,75.0,10.52,36.52
-0.073,0.166,1.119,3.222,75.0,10.52,36.49
-0.089,0.166,1.119,3.222,75.0,10.52,36.44
-0.098,0.166,1.119,3.222,75.0,10.52,36.4
-0.067,0.186,1.117,3.222,75.0,10.52,36.39
-0.095,0.186,1.119,3.222,75.0,10.52,36.4
0.012,0.435,1.117,3.222,75.0,10.52,36.47
0.163,0.269,1.119,3.22,75.0,10.52,36.53
-0.104,0.228,1.119,3.219,75.0,10.52,36.62
-0.055,0.207,1.117,3.219,75.0,10.52,36.72
0.079,0.207,1.116,3.219,74.0,10.52,36.84
0.074,0.186,1.116,3.219,74.0,10.52,36.97
-0.121,0.207,1.116,3.219,74.0,10.52,37.1
-0.122,0.228,1.117,3.219,74.0,10.52,37.22
-0.121,0.166,1.119,3.219,74.0,10.52,37.27
-0.112,0.166,1.119,3.219,74.0,10.52,37.34
-0.097,0.186,1.119,3.217,74.0,10.52,37.44
-0.161,0.249,1.117,3.217,74.0,10.52,37.54
0.258,0.435,1.119,3.217,74.0,10.52,37.66
-0.122,0.207,1.116,3.217,74.0,10.52,37.75
-0.086,0.166,1.116,3.217,74.0,10.52,37.83
0.017,0.207,1.116,3.217,81.0,10.52,37.92
0.122,0.207,1.116,3.217,81.0,10.52,38.01
-0.092,0.145,1.116,3.215,81.0,10.52,38.07
-0.127,0.186,1.116,3.217,81.0,10.52,38.09
-0.111,0.186,1.116,3.214,81.0,10.52,38.05
-0.111,0.186,1.116,3.214,81.0,10.52,37.98
-0.073,0.207,1.116,3.214,81.0,10.52,37.93
-0.139,0.166,1.116,3.214,81.0,10.52,37.9
0.279,0.394,1.116,3.214,81.0,10.52,37.89
-0.123,0.166,1.116,3.214,81.0,10.52,37.86
-0.086,0.186,1.116,3.213,81.0,10.52,37.84
-0.003,0.186,1.116,3.213,82.0,10.52,37.81
0.136,0.186,1.116,3.212,82.0,10.52,37.8
-0.054,0.186,1.116,3.212,82.0,10.52,37.79
-0.123,0.145,1.116,3.212,82.0,10.52,37.76
-0.11,0.145,1.116,3.212,82.0,10.52,37.72
-0.122,0.186,1.116,3.212,82.0,10.52,37.62
-0.102,0.186,1.116,3.212,82.0,10.52,37.55
-0.088,0.166,1.116,3.212,82.0,10.51,37.5
-0.153,0.166,1.116,3.212,82.0,10.52,37.47
0.303,0.414,1.116,3.209,82.0,10.52,37.45
-0.116,0.145,1.116,3.209,82.0,10.51,37.42
-0.076,0.186,1.116,3.209,82.0,10.51,37.4
0.029,0.228,1.116,3.209,79.0,10.52,37.4
0.13,0.166,1.116,3.209,79.0,10.52,37.37
-0.088,0.186,1.116,3.209,79.0,10.51,37.34
-0.115,0.166,1.116,3.209,79.0,10.51,37.3
-0.105,0.166,1.116,3.207,79.0,10.52,37.2
-0.114,0.166,1.116,3.207,79.0,10.51,37.06
-0.114,0.166,1.116,3.207,79.0,10.52,36.96
-0.109,0.186,1.116,3.207,79.0,10.51,36.89
-0.114,0.207,1.116,3.207,79.0,10.51,36.84
0.087,0.414,1.116,3.207,79.0,10.51,36.79
0.134,0.352,1.116,3.207,79.0,10.52,36.74
-0.083,0.166,1.116,3.207,79.0,10.51,36.7
-0.028,0.186,1.116,3.207,73.0,10.51,36.64
0.113,0.145,1.116,3.207,73.0,10.51,36.64
0.087,0.166,1.116,3.204,73.0,10.51,36.63
-0.092,0.249,1.116,3.205,73.0,10.51,36.62
-0.085,0.166,1.116,3.204,73.0,10.52,36.6
-0.085,0.166,1.116,3.204,73.0,10.51,36.55
-0.092,0.166,1.116,3.204,73.0,10.51,36.48
-0.093,0.166,1.116,3.204,73.0,10.51,36.46
-0.09,0.186,1.116,3.204,73.0,10.51,36.44
-0.068,0.228,1.116,3.204,73.0,10.51,36.46
-0.048,0.207,1.116,3.203,73.0,10.51,36.47
-0.114,0.186,1.116,3.202,73.0,10.51,36.48
0.355,0.414,1.116,3.203,73.0,10.51,36.51
-0.079,0.166,1.116,3.203,73.0,10.51,36.56
-0.042,0.228,1.116,3.202,73.0,10.51,36.63
0.057,0.166,1.116,3.202,64.0,10.51,36.71
0.165,0.166,1.116,3.202,64.0,10.51,36.8
-0.054,0.186,1.116,3.202,64.0,10.51,36.91
-0.09,0.186,1.116,3.202,64.0,10.51,37.01
-0.083,0.228,1.116,3.202,64.0,10.51,37.08
-0.094,0.207,1.116,3.202,64.0,10.51,37.13
-0.096,0.186,1.116,3.199,64.0,10.51,37.22
-0.045,0.145,1.115,3.202,64.0,10.51,37.34
-0.096,0.207,1.115,3.202,64.0,10.51,37.49
0.29,0.352,1.115,3.199,64.0,10.51,37.6
-0.085,0.249,1.115,3.199,64.0,10.51,37.7
-0.057,0.207,1.115,3.199,64.0,10.51,37.81
0.009,0.166,1.114,3.199,75.0,10.51,37.9
0.167,0.207,1.114,3.199,75.0,10.51,38.01
0.048,0.166,1.114,3.199,75.0,10.51,38.12
-0.08,0.186,1.114,3.199,75.0,10.51,38.22
-0.068,0.186,1.114,3.198,75.0,10.51,38.3
-0.07,0.186,1.114,3.197,75.0,10.51,38.31
-0.033,0.186,1.114,3.197,75.0,10.51,38.33
-0.078,0.166,1.114,3.197,75.0,10.51,38.35
0.202,0.352,1.114,3.197,75.0,10.51,38.37
0.017,0.29,1.114,3.197,75.0,10.51,38.39
-0.057,0.186,1.114,3.197,75.0,10.51,38.38
-0.001,0.166,1.114,3.194,83.0,10.51,38.36
0.142,0.166,1.114,3.194,83.0,10.51,38.36
0.07,0.207,1.114,3.194,83.0,10.51,38.36
-0.082,0.166,1.114,3.194,83.0,10.51,38.34
-0.073,0.186,1.114,3.194,83.0,10.51,38.32
-0.077,0.145,1.114,3.194,83.0,10.5,38.23
-0.058,0.207,1.114,3.194,83.0,10.51,38.17
-0.09,0.228,1.114,3.194,83.0,10.51,38.11
0.064,0.29,1.114,3.194,83.0,10.51,38.08
0.323,0.456,1.114,3.194,83.0,10.51,38.07
-0.079,0.186,1.114,3.192,83.0,10.51,38.03
-0.035,0.186,1.114,3.192,81.0,10.51,37.99
0.079,0.207,1.114,3.192,81.0,10.51,37.95
0.145,0.249,1.114,3.192,81.0,10.5,37.94
-0.07,0.166,1.114,3.192,81.0,10.5,37.91
-0.083,0.166,1.114,3.192,81.0,10.5,37.88
-0.075,0.186,1.114,3.192,81.0,10.51,37.78
-0.084,0.186,1.114,3.192,81.0,10.51,37.65
-0.062,0.186,1.114,3.192,81.0,10.5,37.56
-0.039,0.166,1.114,3.192,81.0,10.5,37.47
-0.108,0.166,1.114,3.189,81.0,10.5,37.43
0.35,0.435,1.114,3.19,81.0,10.51,37.38
-0.074,0.186,1.114,3.189,81.0,10.51,37.3
-0.038,0.186,1.114,3.189,81.0,10.5,37.23
0.06,0.186,1.114,3.189,76.0,10.5,37.18
0.178,0.124,1.114,3.189,76.0,10.5,37.12
-0.035,0.228,1.114,3.189,76.0,10.5,37.06
-0.069,0.186,1.114,3.189,76.0,10.5,37.0
-0.057,0.249,1.114,3.188,76.0,10.5,36.89
-0.066,0.166,1.114,3.187,76.0,10.5,36.75
-0.068,0.186,1.114,3.187,76.0,10.5,36.66
-0.066,0.186,1.112,3.187,76.0,10.5,36.59
-0.062,0.186,1.112,3.187,76.0,10.5,36.56
-0.008,0.166,1.111,3.187,76.0,10.5,36.54
-0.047,0.228,1.111,3.187,76.0,10.5,36.54
0.176,0.394,1.111,3.187,76.0,10.5,36.53
0.155,0.373,1.111,3.187,76.0,10.5,36.53
-0.032,0.207,1.111,3.187,76.0,10.5,36.53
0.018,0.207,1.111,3.187,76.0,10.5,36.53
0.155,0.166,1.111,3.186,76.0,10.5,36.54
0.145,0.186,1.111,3.186,76.0,10.5,36.54
-0.045,0.228,1.111,3.185,76.0,10.5,36.54
-0.042,0.166,1.111,3.185,63.0,10.5,36.53
-0.045,0.186,1.111,3.185,63.0,10.5,36.49
-0.057,0.207,1.111,3.185,63.0,10.5,36.45
-0.06,0.186,1.111,3.183,63.0,10.5,36.42
-0.06,0.166,1.111,3.182,63.0,10.5,36.42
-0.056,0.166,1.111,3.182,63.0,10.5,36.43
0.001,0.166,1.111,3.182,63.0,10.5,36.44
-0.061,0.186,1.111,3.182,63.0,10.5,36.45
0.366,0.497,1.111,3.182,63.0,10.5,36.47
-0.046,0.207,1.111,3.182,63.0,10.5,36.47
-0.028,0.166,1.111,3.182,63.0,10.5,36.49
0.035,0.186,1.111,3.182,63.0,10.5,36.5
0.186,0.166,1.111,3.182,63.0,10.5,36.52
0.063,0.29,1.111,3.182,63.0,10.5,36.53
-0.068,0.124,1.111,3.181,63.0,10.5,36.58
-0.062,0.186,1.111,3.18,63.0,10.5,36.63
-0.071,0.166,1.111,3.18,63.0,10.5,36.64
-0.081,0.207,1.111,3.18,63.0,10.5,36.68
-0.079,0.186,1.111,3.18,63.0,10.5,36.76
-0.031,0.186,1.111,3.18,63.0,10.5,36.88
-0.101,0.166,1.111,3.18,63.0,10.5,37.01
0.303,0.456,1.111,3.178,63.0,10.5,37.13
-0.09,0.166,1.111,3.177,63.0,10.5,37.25
-0.057,0.207,1.111,3.177,63.0,10.5,37.38
0.018,0.166,1.111,3.177,72.0,10.5,37.53
0.171,0.186,1.111,3.177,72.0,10.5,37.66
0.005,0.186,1.111,3.177,72.0,10.5,37.79
-0.095,0.186,1.111,3.177,72.0,10.5,37.91
-0.081,0.145,1.111,3.177,72.0,10.5,37.98
-0.091,0.207,1.111,3.176,72.0,10.5,38.01
-0.043,0.166,1.111,3.177,72.0,10.5,38.05
-0.108,0.145,1.111,3.175,72.0,10.5,38.07
0.254,0.352,1.111,3.175,72.0,10.5,38.05
-0.08,0.207,1.111,3.175,72.0,10.5,38.04
-0.077,0.186,1.111,3.175,72.0,10.5,38.0
-0.012,0.186,1.111,3.175,82.0,10.5,37.97
0.143,0.166,1.111,3.175,82.0,10.5,37.96
0.035,0.166,1.111,3.172,82.0,10.5,37.95
-0.102,0.166,1.111,3.172,82.0,10.5,37.93
-0.086,0.207,1.111,3.172,82.0,10.5,37.91
-0.093,0.186,1.111,3.172,82.0,10.5,37.84
-0.048,0.207,1.111,3.172,82.0,10.5,37.78
-0.093,0.166,1.111,3.172,82.0,10.5,37.73
0.06,0.331,1.111,3.172,82.0,10.5,37.71
0.133,0.29,1.111,3.172,82.0,10.5,37.7
-0.082,0.145,1.111,3.172,82.0,10.5,37.68
-0.026,0.207,1.111,3.172,83.0,10.5,37.65
0.118,0.186,1.111,3.17,83.0,10.5,37.63
0.085,0.145,1.111,3.17,83.0,10.5,37.6
-0.091,0.207,1.111,3.17,83.0,10.5,37.59
-0.084,0.166,1.111,3.17,83.0,10.5,37.58
-0.088,0.186,1.111,3.17,83.0,10.5,37.51
-0.084,0.228,1.111,3.17,83.0,10.5,37.45
-0.033,0.186,1.111,3.17,83.0,10.5,37.42
-0.114,0.228,1.111,3.17,83.0,10.5,37.39
0.313,0.477,1.111,3.17,83.0,10.5,37.36
-0.094,0.228,1.111,3.17,83.0,10.5,37.32
-0.061,0.166,1.111,3.168,83.0,10.5,37.25
0.023,0.166,1.111,3.167,80.0,10.5,37.2
0.169,0.186,1.111,3.167,80.0,10.5,37.14
-0.018,0.186,1.111,3.167,80.0,10.5,37.07
-0.085,0.124,1.111,3.167,80.0,10.5,37.0
-0.073,0.145,1.111,3.167,80.0,10.5,36.9
-0.08,0.166,1.111,3.167,80.0,10.5,36.74
-0.085,0.249,1.111,3.167,80.0,10.5,36.63
-0.083,0.228,1.111,3.167,80.0,10.5,36.56
-0.079,0.166,1.111,3.166,80.0,10.5,36.53
-0.017,0.207,1.11,3.167,80.0,10.5,36.52
-0.069,0.145,1.11,3.165,80.0,10.5,36.51
0.271,0.352,1.11,3.165,80.0,10.5,36.5
0.014,0.331,1.11,3.165,80.0,10.5,36.5
-0.05,0.145,1.111,3.165,80.0,10.5,36.52
0.006,0.166,1.111,3.165,65.0,10.5,36.52
0.152,0.186,1.11,3.165,65.0,10.49,36.53
0.103,0.207,1.111,3.165,65.0,10.49,36.53
-0.067,0.228,1.111,3.165,65.0,10.5,36.54
-0.059,0.166,1.111,3.163,65.0,10.5,36.53
-0.065,0.186,1.109,3.162,65.0,10.5,36.47
-0.078,0.228,1.109,3.162,65.0,10.5,36.44
-0.081,0.186,1.109,3.162,65.0,10.5,36.44
-0.07,0.207,1.109,3.162,65.0,10.5,36.47
-0.025,0.228,1.109,3.162,65.0,10.49,36.53
-0.092,0.166,1.109,3.162,65.0,10.5,36.58
0.317,0.456,1.109,3.162,65.0,10.49,36.66
-0.086,0.228,1.109,3.162,65.0,10.5,36.85
-0.061,0.166,1.109,3.162,65.0,10.5,36.87
0.004,0.228,1.109,3.162,67.0,10.49,36.98
0.16,0.207,1.109,3.16,67.0,10.5,37.1
0.041,0.166,1.109,3.16,67.0,10.5,37.23
-0.091,0.166,1.109,3.16,67.0,10.49,37.35
-0.08,0.207,1.109,3.16,67.0,10.49,37.43
-0.085,0.207,1.109,3.16,67.0,10.49,37.46
-0.076,0.207,1.109,3.16,67.0,10.49,37.52
-0.037,0.207,1.109,3.16,67.0,10.5,37.59
-0.102,0.166,1.109,3.16,67.0,10.49,37.71
0.296,0.373,1.109,3.16,67.0,10.49,37.82
-0.075,0.249,1.109,3.157,67.0,10.49,37.9
-0.036,0.145,1.109,3.157,67.0,10.49,37.99
0.057,0.186,1.109,3.157,79.0,10.49,38.1
0.195,0.145,1.109,3.157,79.0,10.5,38.22
-0.005,0.145,1.109,3.157,79.0,10.49,38.33
-0.066,0.166,1.109,3.157,79.0,10.49,38.41
-0.05,0.186,1.109,3.157,79.0,10.49,38.42
-0.047,0.186,1.109,3.157,79.0,10.49,38.36
-0.015,0.186,1.109,3.157,79.0,10.49,38.3
-0.083,0.166,1.109,3.157,79.0,10.49,38.25
0.326,0.539,1.109,3.155,79.0,10.49,38.2
-0.065,0.207,1.109,3.155,79.0,10.49,38.17
-0.026,0.207,1.109,3.155,79.0,10.49,38.14
0.062,0.145,1.109,3.155,84.0,10.49,38.11
0.199,0.186,1.109,3.155,84.0,10.49,38.08
-0.001,0.228,1.109,3.155,84.0,10.49,38.05
-0.06,0.186,1.106,3.155,84.0,10.49,38.0
-0.045,0.186,1.106,3.155,84.0,10.49,37.93
-0.055,0.166,1.109,3.155,84.0,10.49,37.8
-0.023,0.207,1.106,3.152,84.0,10.49,37.68
-0.031,0.166,1.106,3.153,84.0,10.49,37.59
-0.078,0.249,1.106,3.152,84.0,10.49,37.52
0.361,0.435,1.106,3.152,84.0,10.49,37.46
-0.056,0.124,1.107,3.152,84.0,10.49,37.38
-0.013,0.145,1.109,3.152,84.0,10.49,37.29
0.121,0.186,1.106,3.152,79.0,10.49,37.2
0.109,0.145,1.106,3.152,79.0,10.49,37.13
-0.053,0.186,1.109,3.151,79.0,10.49,37.06
-0.062,0.207,1.106,3.151,79.0,10.49,36.98
-0.059,0.207,1.106,3.151,79.0,10.49,36.86
-0.074,0.186,1.109,3.15,79.0,10.49,36.64
-0.081,0.145,1.109,3.15,79.0,10.49,36.64
-0.083,0.186,1.109,3.15,79.0,10.49,36.57
-0.033,0.124,1.109,3.15,79.0,10.49,36.53
-0.07,0.186,1.106,3.15,79.0,10.49,36.53
0.027,0.331,1.106,3.15,79.0,10.49,36.52
0.225,0.352,1.106,3.15,79.0,10.49,36.52
-0.075,0.166,1.106,3.15,79.0,10.49,36.52
-0.024,0.186,1.107,3.15,79.0,10.49,36.52
0.112,0.166,1.107,3.15,67.0,10.49,36.52
0.123,0.186,1.107,3.15,67.0,10.49,36.53
-0.081,0.228,1.107,3.147,67.0,10.49,36.53
-0.081,0.228,1.106,3.147,67.0,10.49,36.52
-0.082,0.166,1.106,3.147,67.0,10.49,36.48
-0.093,0.186,1.106,3.147,67.0,10.49,36.43
-0.096,0.228,1.106,3.147,67.0,10.49,36.41
-0.091,0.228,1.106,3.147,67.0,10.49,36.39
-0.085,0.145,1.106,3.147,67.0,10.49,36.41
-0.055,0.249,1.107,3.146,67.0,10.49,36.43
-0.037,0.207,1.106,3.145,67.0,10.49,36.43
-0.103,0.166,1.107,3.146,67.0,10.49,36.45
0.372,0.497,1.106,3.145,67.0,10.49,36.46
-0.066,0.207,1.106,3.145,67.0,10.49,36.47
-0.027,0.186,1.106,3.145,67.0,10.49,36.49
0.077,0.124,1.106,3.145,61.0,10.49,36.52
0.184,0.166,1.106,3.145,61.0,10.49,36.54
-0.044,0.145,1.106,3.145,61.0,10.49,36.6
-0.079,0.166,1.106,3.145,61.0,10.49,36.65
-0.074,0.166,1.106,3.145,61.0,10.49,36.66
-0.089,0.249,1.106,3.145,61.0,10.49,36.66
-0.094,0.166,1.106,3.145,61.0,10.49,36.72
-0.094,0.186,1.106,3.143,61.0,10.49,36.79
-0.039,0.186,1.106,3.142,61.0,10.49,36.89
-0.089,0.207,1.106,3.142,61.0,10.48,37.0
0.268,0.394,1.106,3.145,61.0,10.48,37.07
-0.042,0.373,1.106,3.142,61.0,10.49,37.18
-0.054,0.166,1.106,3.142,61.0,10.49,37.29
0.007,0.186,1.106,3.142,68.0,10.48,37.41
0.169,0.186,1.106,3.142,68.0,10.48,37.52
0.094,0.166,1.106,3.142,68.0,10.48,37.63
-0.072,0.166,1.106,3.142,68.0,10.48,37.73
-0.061,0.228,1.106,3.142,68.0,10.48,37.83
-0.057,0.186,1.106,3.142,68.0,10.48,37.85
-0.021,0.186,1.106,3.142,68.0,10.48,37.88
-0.034,0.186,1.106,3.141,68.0,10.48,37.93
-0.043,0.228,1.106,3.141,68.0,10.48,38.0
0.31,0.394,1.106,3.141,68.0,10.48,38.08
-0.032,0.207,1.106,3.14,68.0,10.48,38.13
0.015,0.186,1.106,3.14,68.0,10.48,38.15
0.15,0.228,1.106,3.14,82.0,10.48,38.18
0.18,0.166,1.106,3.14,82.0,10.49,38.2
-0.028,0.186,1.106,3.14,82.0,10.48,38.2
-0.032,0.145,1.106,3.14,82.0,10.48,38.21
-0.03,0.166,1.106,3.14,82.0,10.48,38.14
-0.028,0.145,1.106,3.14,82.0,10.48,38.06
0.0,0.186,1.106,3.138,82.0,10.48,37.99
-0.07,0.166,1.106,3.137,82.0,10.49,37.93
0.351,0.331,1.106,3.137,82.0,10.48,37.91
-0.049,0.186,1.106,3.137,82.0,10.48,37.87
-0.015,0.145,1.106,3.137,82.0,10.49,37.84
0.073,0.186,1.106,3.137,81.0,10.48,37.8
0.015,0.166,1.106,3.137,81.0,10.49,37.8
-0.044,0.186,1.106,3.137,81.0,10.49,37.78
-0.066,0.207,1.106,3.137,81.0,10.48,37.73
-0.054,0.166,1.106,3.137,81.0,10.48,37.66
-0.067,0.145,1.106,3.137,81.0,10.49,37.55
-0.078,0.228,1.106,3.137,81.0,10.48,37.37
-0.017,0.207,1.106,3.137,81.0,10.49,37.36
-0.094,0.228,1.106,3.136,81.0,10.48,37.3
0.326,0.497,1.106,3.135,81.0,10.49,37.26
-0.099,0.207,1.106,3.135,81.0,10.48,37.21
-0.081,0.145,1.106,3.135,81.0,10.48,37.19
-0.014,0.166,1.106,3.135,75.0,10.48,37.14
0.144,0.166,1.106,3.135,75.0,10.49,37.1
0.012,0.207,1.106,3.135,75.0,10.48,37.05
-0.111,0.145,1.106,3.135,75.0,10.48,36.98
-0.1,0.186,1.106,3.135,75.0,10.48,36.9
-0.104,0.186,1.106,3.135,75.0,10.48,36.78
-0.116,0.186,1.106,3.135,75.0,10.48,36.67
-0.117,0.166,1.106,3.133,75.0,10.48,36.61
-0.051,0.207,1.106,3.133,75.0,10.48,36.56
-0.109,0.186,1.106,3.132,75.0,10.48,36.55
0.249,0.331,1.106,3.132,75.0,10.48,36.54
-0.033,0.311,1.106,3.132,75.0,10.48,36.54
-0.085,0.207,1.106,3.132,75.0,10.48,36.53
-0.024,0.124,1.106,3.132,70.0,10.48,36.54
0.133,0.166,1.106,3.132,70.0,10.48,36.54
0.054,0.166,1.106,3.132,70.0,10.48,36.55
-0.108,0.145,1.106,3.132,70.0,10.48,36.56
-0.103,0.186,1.106,3.132,70.0,10.48,36.56
-0.106,0.145,1.106,3.131,70.0,10.48,36.51
-0.118,0.145,1.106,3.131,70.0,10.48,36.46
-0.117,0.166,1.106,3.13,70.0,10.48,36.45
-0.111,0.207,1.106,3.13,70.0,10.48,36.44
-0.111,0.186,1.106,3.13,70.0,10.48,36.46
-0.094,0.166,1.106,3.13,70.0,10.48,36.47
-0.049,0.166,1.106,3.13,70.0,10.48,36.47
-0.12,0.186,1.106,3.13,70.0,10.48,36.49
0.329,0.497,1.106,3.13,70.0,10.48,36.49
-0.096,0.207,1.106,3.13,70.0,10.48,36.52
-0.068,0.186,1.106,3.13,70.0,10.48,36.55
0.016,0.186,1.106,3.128,59.0,10.48,36.59
0.167,0.228,1.106,3.127,59.0,10.48,36.64
-0.037,0.166,1.106,3.128,59.0,10.48,36.68
-0.115,0.145,1.106,3.127,59.0,10.48,36.73
-0.105,0.186,1.106,3.127,59.0,10.48,36.77
-0.114,0.186,1.106,3.127,59.0,10.48,36.78
-0.121,0.186,1.106,3.127,59.0,10.48,36.83
-0.121,0.166,1.106,3.127,59.0,10.48,36.9
-0.119,0.207,1.106,3.127,59.0,10.48,37.01
-0.087,0.249,1.106,3.127,59.0,10.48,37.12
-0.105,0.166,1.106,3.126,59.0,10.48,37.2
0.043,0.373,1.106,3.127,59.0,10.48,37.29
0.122,0.311,1.106,3.125,59.0,10.48,37.39
-0.09,0.186,1.105,3.125,59.0,10.48,37.5
-0.041,0.207,1.104,3.125,64.0,10.48,37.61
0.098,0.228,1.104,3.125,64.0,10.48,37.72
0.104,0.145,1.104,3.125,64.0,10.48,37.82
-0.105,0.207,1.104,3.125,64.0,10.48,37.91
-0.1,0.207,1.104,3.125,64.0,10.48,37.99
-0.095,0.145,1.104,3.125,64.0,10.48,38.01
-0.105,0.228,1.104,3.125,64.0,10.48,38.03
-0.057,0.228,1.104,3.125,64.0,10.48,38.07
-0.119,0.186,1.104,3.125,64.0,10.48,38.07
0.285,0.394,1.104,3.125,64.0,10.48,38.09
-0.112,0.145,1.104,3.123,64.0,10.48,38.08
-0.071,0.186,1.104,3.123,64.0,10.48,38.06
0.004,0.166,1.104,3.122,80.0,10.48,38.03
0.164,0.228,1.104,3.122,80.0,10.48,38.02
-0.013,0.166,1.104,3.122,80.0,10.48,38.01
-0.114,0.186,1.104,3.122,80.0,10.48,37.99
-0.097,0.186,1.104,3.122,80.0,10.48,37.95
-0.103,0.166,1.104,3.122,80.0,10.48,37.85
-0.109,0.124,1.104,3.122,80.0,10.48,37.77
-0.076,0.186,1.104,3.122,80.0,10.48,37.7
-0.073,0.207,1.104,3.122,80.0,10.48,37.67
-0.091,0.249,1.104,3.122,80.0,10.48,37.65
0.318,0.414,1.104,3.12,80.0,10.48,37.6
-0.073,0.145,1.104,3.121,80.0,10.48,37.58
-0.026,0.207,1.104,3.12,80.0,10.48,37.53
0.097,0.186,1.104,3.12,73.0,10.48,37.48
0.153,0.186,1.104,3.12,73.0,10.48,37.44
-0.071,0.186,1.104,3.12,73.0,10.48,37.41
-0.088,0.207,1.104,3.12,73.0,10.48,37.35
-0.079,0.166,1.104,3.12,73.0,10.48,37.25
-0.093,0.186,1.104,3.12,73.0,10.48,37.12
-0.099,0.166,1.104,3.118,73.0,10.48,37.02
-0.098,0.207,1.104,3.12,73.0,10.48,36.95
-0.095,0.145,1.104,3.12,73.0,10.48,36.91
-0.052,0.207,1.104,3.118,73.0,10.48,36.88
-0.091,0.166,1.104,3.117,73.0,10.48,36.83
0.347,0.518,1.104,3.117,73.0,10.48,36.78
-0.067,0.228,1.104,3.117,73.0,10.48,36.75
-0.055,0.145,1.104,3.117,73.0,10.48,36.73
0.004,0.186,1.104,3.117,64.0,10.48,36.71
0.164,0.207,1.102,3.117,64.0,10.48,36.7
0.061,0.166,1.101,3.117,64.0,10.48,36.69
-0.088,0.186,1.101,3.117,64.0,10.48,36.66
-0.076,0.186,1.101,3.117,64.0,10.48,36.65
-0.075,0.124,1.101,3.117,64.0,10.48,36.57
-0.085,0.186,1.101,3.117,64.0,10.48,36.52
-0.084,0.186,1.104,3.115,64.0,10.48,36.49
-0.08,0.145,1.102,3.115,64.0,10.48,36.49
-0.075,0.166,1.104,3.115,64.0,10.48,36.5
-0.034,0.145,1.104,3.115,64.0,10.48,36.51
-0.066,0.145,1.104,3.115,64.0,10.48,36.51
0.331,0.352,1.106,3.115,64.0,10.48,36.52
-0.019,0.331,1.107,3.115,64.0,10.48,36.53
-0.041,0.124,1.115,3.115,64.0,10.48,36.54
0.011,0.145,1.116,3.115,61.0,10.48,36.55
0.169,0.186,1.116,3.115,61.0,10.48,36.57
0.1,0.145,1.116,3.115,61.0,10.48,36.58
-0.073,0.166,1.116,3.115,61.0,10.48,36.58
-0.067,0.186,1.116,3.115,61.0,10.48,36.57
-0.066,0.166,1.116,3.113,61.0,10.48,36.52
-0.078,0.166,1.116,3.112,61.0,10.48,36.48
-0.083,0.166,1.116,3.112,61.0,10.48,36.47
-0.082,0.207,1.116,3.112,61.0,10.48,36.48
-0.077,0.207,1.116,3.112,61.0,10.48,36.51
-0.045,0.228,1.116,3.112,61.0,10.48,36.55
-0.113,0.145,1.116,3.112,61.0,10.48,36.61
0.339,0.456,1.115,3.112,61.0,10.48,36.68
-0.078,0.186,1.115,3.112,61.0,10.48,36.78
-0.046,0.207,1.114,3.11,61.0,10.48,36.88
0.048,0.228,1.114,3.112,64.0,10.48,36.99
0.187,0.186,1.114,3.11,64.0,10.48,37.11
-0.035,0.207,1.114,3.11,64.0,10.48,37.21
-0.097,0.166,1.114,3.11,64.0,10.48,37.3
-0.085,0.166,1.114,3.11,64.0,10.48,37.36
-0.094,0.207,1.114,3.11,64.0,10.48,37.37
-0.099,0.166,1.114,3.11,64.0,10.48,37.44
-0.053,0.186,1.114,3.11,64.0,10.48,37.51
-0.105,0.207,1.114,3.11,64.0,10.48,37.62
0.297,0.373,1.114,3.11,64.0,10.48,37.72
-0.1,0.228,1.114,3.11,64.0,10.48,37.79
-0.063,0.207,1.114,3.11,64.0,10.48,37.88
0.006,0.166,1.114,3.108,75.0,10.48,37.96
0.172,0.166,1.114,3.108,75.0,10.48,38.06
0.022,0.166,1.112,3.107,75.0,10.48,38.16
-0.101,0.207,1.112,3.107,75.0,10.48,38.23
-0.087,0.207,1.112,3.107,75.0,10.48,38.25
-0.09,0.207,1.111,3.107,75.0,10.48,38.21
-0.078,0.207,1.112,3.107,75.0,10.48,38.17
-0.07,0.145,1.111,3.107,75.0,10.48,38.13
-0.107,0.228,1.111,3.107,75.0,10.48,38.13
0.309,0.477,1.111,3.107,75.0,10.48,38.11
-0.08,0.186,1.111,3.107,75.0,10.48,38.08
-0.035,0.166,1.111,3.107,75.0,10.48,38.03
0.087,0.166,1.111,3.105,80.0,10.48,38.0
0.153,0.145,1.111,3.105,80.0,10.48,37.98
-0.071,0.186,1.111,3.105,80.0,10.48,37.95
-0.086,0.166,1.111,3.105,80.0,10.48,37.93
-0.072,0.207,1.111,3.105,80.0,10.48,37.84
-0.083,0.228,1.111,3.105,80.0,10.48,37.74
-0.065,0.228,1.111,3.105,80.0,10.48,37.66
-0.056,0.145,1.111,3.105,80.0,10.48,37.6
-0.075,0.207,1.111,3.105,80.0,10.48,37.58
0.341,0.456,1.111,3.105,80.0,10.48,37.55
-0.063,0.145,1.111,3.105,80.0,10.48,37.5
-0.019,0.145,1.111,3.105,80.0,10.48,37.47
0.104,0.166,1.111,3.102,77.0,10.48,37.43
0.16,0.166,1.111,3.102,77.0,10.48,37.41
-0.062,0.166,1.111,3.102,77.0,10.48,37.37
-0.072,0.166,1.111,3.102,77.0,10.48,37.31
-0.063,0.207,1.111,3.102,77.0,10.48,37.22
-0.071,0.145,1.111,3.102,77.0,10.48,37.1
-0.072,0.145,1.111,3.102,77.0,10.48,37.01
-0.065,0.228,1.111,3.102,77.0,10.48,36.95
-0.019,0.249,1.109,3.102,77.0,10.48,36.92
-0.068,0.228,1.109,3.102,77.0,10.48,36.89
0.384,0.435,1.111,3.1,77.0,10.48,36.84
-0.041,0.186,1.11,3.1,77.0,10.48,36.79
-0.018,0.186,1.109,3.101,77.0,10.48,36.76
0.057,0.145,1.11,3.1,77.0,10.48,36.74
0.212,0.186,1.109,3.1,77.0,10.48,36.72
0.022,0.186,1.109,3.1,77.0,10.48,36.71
-0.059,0.166,1.109,3.1,69.0,10.48,36.69
-0.047,0.166,1.111,3.1,69.0,10.48,36.66
-0.054,0.166,1.109,3.1,69.0,10.48,36.58
