ECG,EMG,foot GSR,hand GSR,HR,marker,RESP
-0.252,0.435,8.176,7.36,91.0,10.17,51.46
-0.229,0.29,8.194,7.397,91.0,10.17,51.39
0.124,0.559,8.212,7.43,91.0,10.17,51.31
-0.114,0.269,8.231,7.464,91.0,10.17,51.14
0.111,0.269,8.248,7.495,91.0,10.17,51.01
0.222,0.29,8.264,7.524,91.0,10.17,50.95
0.137,0.207,8.279,7.554,91.0,10.17,50.9
-0.143,0.29,8.293,7.582,91.0,10.17,50.93
-0.136,0.311,8.302,7.608,91.0,10.18,51.09
-0.082,0.29,8.312,7.649,91.0,10.17,51.06
-0.041,0.58,8.314,7.651,91.0,10.17,51.04
-0.121,0.414,8.318,7.668,91.0,10.17,50.86
0.235,0.663,8.316,7.685,91.0,10.17,50.65
0.007,0.58,8.31,7.698,91.0,10.17,50.46
-0.069,0.622,8.294,7.711,91.0,10.17,49.98
-0.008,1.077,8.289,7.721,89.0,10.17,50.1
0.2,1.098,8.266,7.727,89.0,10.18,50.4
-0.01,0.994,8.268,7.732,89.0,10.17,50.68
-0.189,0.974,8.257,7.736,89.0,10.16,50.77
-0.236,0.808,8.238,7.736,89.0,10.15,50.54
-0.142,1.036,8.221,7.734,89.0,10.15,50.11
-0.052,0.912,8.205,7.731,89.0,10.15,50.28
-0.124,0.58,8.189,7.725,89.0,10.17,50.5
0.264,0.808,8.17,7.72,89.0,10.17,50.54
-0.165,0.518,8.154,7.713,89.0,10.16,50.37
-0.082,0.642,8.136,7.706,89.0,10.15,50.04
0.023,0.497,8.115,7.697,87.0,10.13,49.67
0.21,0.684,8.094,7.691,87.0,10.13,49.42
-0.039,0.477,8.074,7.684,87.0,10.15,49.2
-0.19,0.497,8.054,7.673,87.0,10.13,49.04
-0.178,1.036,8.032,7.66,87.0,10.13,48.77
-0.173,0.746,8.011,7.648,87.0,10.13,48.49
-0.133,0.663,7.99,7.634,87.0,10.13,48.38
-0.206,0.974,7.97,7.62,87.0,10.13,48.32
-0.015,0.87,7.95,7.603,87.0,10.13,48.3
-0.01,0.974,7.93,7.586,87.0,10.13,48.23
-0.094,1.119,7.91,7.568,85.0,10.13,48.16
0.001,0.746,7.893,7.55,85.0,10.13,48.17
0.196,0.932,7.875,7.531,85.0,10.13,48.11
0.057,1.057,7.859,7.512,85.0,10.13,48.0
-0.159,0.663,7.844,7.495,85.0,10.15,48.07
-0.159,1.637,7.828,7.476,85.0,10.15,48.0
-0.16,1.554,7.812,7.458,85.0,10.15,47.78
-0.126,0.891,7.796,7.438,85.0,10.13,47.45
-0.142,0.559,7.779,7.418,85.0,10.13,47.15
-0.176,0.539,7.765,7.398,85.0,10.13,46.99
0.217,1.305,7.752,7.381,85.0,10.13,46.82
-0.139,0.912,7.738,7.361,85.0,10.13,46.7
-0.016,0.663,7.726,7.341,85.0,10.13,46.68
0.124,0.601,7.713,7.324,85.0,10.13,46.61
0.282,0.663,7.702,7.304,82.0,10.13,46.51
-0.015,0.373,7.691,7.284,82.0,10.13,46.46
-0.107,0.29,7.679,7.266,82.0,10.13,46.28
-0.097,0.518,7.669,7.249,82.0,10.13,46.09
-0.109,0.414,7.659,7.233,82.0,10.13,46.01
-0.061,0.352,7.649,7.215,82.0,10.13,45.97
-0.094,0.767,7.639,7.198,82.0,10.15,45.97
-0.127,0.559,7.629,7.183,82.0,10.15,45.97
0.24,0.331,7.619,7.167,82.0,10.13,45.99
-0.067,0.29,7.609,7.151,82.0,10.13,46.01
0.03,0.518,7.599,7.136,82.0,10.13,46.0
0.168,0.477,7.589,7.121,82.0,10.15,46.01
0.309,0.559,7.582,7.106,80.0,10.15,46.03
-0.008,0.746,7.572,7.092,80.0,10.15,45.97
-0.091,0.663,7.564,7.077,80.0,10.15,45.8
-0.079,0.311,7.554,7.064,80.0,10.15,45.66
-0.09,0.394,7.546,7.05,80.0,10.15,45.65
-0.033,0.559,7.537,7.036,80.0,10.16,45.69
-0.096,0.559,7.529,7.022,80.0,10.16,45.71
-0.111,0.414,7.522,7.009,80.0,10.16,45.75
0.234,0.269,7.513,6.997,80.0,10.16,45.72
-0.027,0.477,7.505,6.984,80.0,10.17,45.73
0.056,0.269,7.497,6.973,80.0,10.17,45.75
0.218,0.228,7.49,6.96,81.0,10.17,45.77
0.276,0.186,7.481,6.948,81.0,10.18,45.8
-0.045,0.373,7.474,6.937,81.0,10.18,45.68
-0.079,0.145,7.466,6.925,81.0,10.18,45.55
-0.079,0.186,7.46,6.915,81.0,10.18,45.5
-0.089,0.249,7.452,6.903,81.0,10.19,45.5
-0.031,0.497,7.444,6.893,81.0,10.19,45.53
-0.08,0.559,7.437,6.885,81.0,10.19,45.51
-0.115,0.249,7.43,6.876,81.0,10.18,45.53
0.234,0.186,7.424,6.866,81.0,10.18,45.6
-0.038,0.228,7.418,6.857,81.0,10.18,45.75
0.04,0.186,7.41,6.848,81.0,10.18,45.9
0.189,0.228,7.404,6.838,79.0,10.18,46.09
0.289,0.166,7.398,6.83,79.0,10.18,46.37
-0.036,0.228,7.392,6.821,79.0,10.18,46.55
-0.094,0.249,7.384,6.811,79.0,10.18,46.83
-0.093,0.249,7.379,6.804,79.0,10.18,47.16
-0.096,0.269,7.373,6.795,79.0,10.18,47.58
-0.041,0.477,7.367,6.786,79.0,10.18,47.99
-0.114,0.207,7.362,6.779,79.0,10.18,48.29
-0.081,0.331,7.357,6.769,79.0,10.18,48.63
0.187,0.331,7.349,6.761,79.0,10.18,49.0
-0.027,0.186,7.344,6.754,79.0,10.18,49.31
0.066,0.311,7.337,6.746,81.0,10.18,49.54
0.243,0.352,7.332,6.739,81.0,10.18,49.69
0.218,0.29,7.327,6.731,81.0,10.18,49.58
-0.064,0.311,7.322,6.725,81.0,10.18,49.46
-0.08,0.249,7.316,6.718,81.0,10.18,49.38
-0.086,0.477,7.31,6.711,81.0,10.18,49.34
-0.037,0.539,7.305,6.706,81.0,10.18,49.31
-0.083,0.311,7.3,6.698,81.0,10.18,49.21
-0.117,0.435,7.295,6.693,81.0,10.19,49.06
0.245,0.249,7.29,6.686,81.0,10.18,48.93
-0.033,0.539,7.285,6.678,81.0,10.18,48.72
0.053,0.331,7.28,6.671,85.0,10.18,48.5
0.21,0.373,7.275,6.664,85.0,10.18,48.28
0.29,0.269,7.27,6.658,85.0,10.18,47.95
-0.031,0.311,7.265,6.651,85.0,10.18,47.63
-0.074,0.311,7.26,6.646,85.0,10.18,47.37
-0.069,0.477,7.256,6.639,85.0,10.18,47.19
-0.063,0.559,7.25,6.633,85.0,10.18,47.09
-0.02,0.249,7.245,6.628,85.0,10.18,46.92
-0.094,0.352,7.242,6.622,85.0,10.18,46.8
0.146,0.331,7.238,6.616,85.0,10.18,46.71
0.041,0.207,7.233,6.611,85.0,10.18,46.63
0.012,0.311,7.228,6.606,85.0,10.19,46.46
0.122,0.373,7.223,6.599,82.0,10.19,46.36
0.312,0.456,7.219,6.594,82.0,10.19,46.17
0.154,0.435,7.215,6.589,82.0,10.19,45.94
-0.066,0.331,7.21,6.584,82.0,10.19,45.81
-0.063,0.352,7.205,6.579,82.0,10.19,45.75
-0.067,0.642,7.2,6.572,82.0,10.21,45.74
-0.03,0.331,7.196,6.569,82.0,10.19,45.68
-0.047,0.477,7.193,6.564,82.0,10.21,45.65
-0.094,0.207,7.188,6.557,82.0,10.21,45.64
0.294,0.414,7.183,6.551,82.0,10.21,45.61
-0.074,0.311,7.178,6.546,82.0,10.21,45.59
0.048,0.29,7.174,6.541,82.0,10.21,45.59
0.179,0.249,7.17,6.537,82.0,10.19,45.51
0.344,0.228,7.165,6.532,82.0,10.19,45.3
0.039,0.456,7.16,6.527,82.0,10.21,45.14
-0.073,0.331,7.156,6.522,82.0,10.21,45.1
-0.065,0.559,7.151,6.517,82.0,10.22,45.14
-0.075,0.373,7.148,6.512,82.0,10.23,45.1
-0.016,0.414,7.143,6.508,82.0,10.24,44.98
-0.071,0.29,7.14,6.504,82.0,10.26,44.95
-0.101,0.456,7.136,6.499,82.0,10.26,44.95
0.245,0.311,7.131,6.494,82.0,10.27,44.94
-0.024,0.311,7.127,6.489,80.0,10.26,44.95
0.061,0.477,7.123,6.484,80.0,10.24,44.95
0.221,0.394,7.118,6.481,80.0,10.24,44.78
0.322,0.352,7.115,6.474,80.0,10.24,44.61
-0.014,0.186,7.111,6.471,80.0,10.24,44.56
-0.071,0.456,7.107,6.464,80.0,10.24,44.57
-0.068,0.58,7.103,6.461,80.0,10.24,44.6
-0.076,0.311,7.098,6.457,80.0,10.24,44.58
-0.018,0.352,7.095,6.452,80.0,10.24,44.57
-0.092,0.311,7.091,6.447,80.0,10.24,44.6
-0.086,0.414,7.086,6.445,80.0,10.24,44.62
0.217,0.352,7.083,6.44,80.0,10.23,44.59
-0.011,0.373,7.078,6.435,81.0,10.24,44.57
0.072,0.394,7.076,6.432,81.0,10.24,44.5
0.253,0.269,7.072,6.429,81.0,10.24,44.35
0.252,0.186,7.07,6.425,81.0,10.24,44.25
-0.065,0.331,7.066,6.422,81.0,10.24,44.25
-0.088,0.269,7.064,6.421,81.0,10.24,44.3
-0.091,0.414,7.063,6.419,81.0,10.24,44.32
-0.089,0.249,7.063,6.419,81.0,10.24,44.32
-0.043,0.414,7.063,6.417,81.0,10.24,44.31
-0.122,0.352,7.063,6.419,81.0,10.23,44.33
0.0,0.352,7.063,6.419,81.0,10.23,44.31
0.109,0.166,7.065,6.42,80.0,10.23,44.3
-0.011,0.331,7.068,6.422,80.0,10.23,44.28
0.088,0.29,7.071,6.425,80.0,10.23,44.14
0.281,0.311,7.073,6.426,80.0,10.22,44.07
0.177,0.207,7.077,6.43,80.0,10.22,44.22
-0.097,0.228,7.081,6.432,80.0,10.22,44.52
-0.102,0.642,7.085,6.435,80.0,10.21,44.84
-0.11,0.311,7.088,6.439,80.0,10.21,45.12
-0.107,0.414,7.091,6.442,80.0,10.21,45.46
-0.064,0.352,7.095,6.445,80.0,10.19,45.83
-0.139,0.352,7.097,6.449,80.0,10.19,46.19
0.042,0.269,7.1,6.452,80.0,10.18,46.52
0.025,0.249,7.102,6.456,80.0,10.18,46.84
-0.038,0.373,7.105,6.459,80.0,10.21,47.04
0.067,0.29,7.106,6.462,80.0,10.26,47.13
0.271,0.311,7.107,6.466,80.0,10.24,47.33
0.127,0.29,7.107,6.467,80.0,10.28,47.61
-0.12,0.456,7.107,6.468,80.0,10.3,47.92
-0.122,0.663,7.105,6.469,80.0,10.26,48.1
-0.127,0.186,7.105,6.471,80.0,10.29,48.2
-0.098,0.352,7.102,6.471,81.0,10.55,48.33
-0.101,0.477,7.102,6.471,81.0,10.52,48.47
-0.151,0.207,7.1,6.471,81.0,10.46,48.54
0.24,0.269,7.096,6.471,81.0,10.4,48.55
-0.144,0.311,7.093,6.468,81.0,10.48,48.48
-0.019,0.311,7.091,6.468,81.0,10.3,48.28
0.111,0.394,7.086,6.466,81.0,10.17,48.11
0.302,0.186,7.083,6.464,81.0,10.06,48.03
0.005,0.394,7.078,6.462,81.0,10.08,48.02
-0.129,0.559,7.074,6.461,81.0,9.97,47.96
-0.121,0.311,7.071,6.457,81.0,9.9,47.82
-0.127,0.352,7.064,6.454,81.0,10.1,47.69
-0.109,0.435,7.059,6.452,81.0,10.26,47.56
-0.081,0.249,7.054,6.447,81.0,10.5,47.43
-0.143,0.352,7.049,6.445,81.0,10.48,47.26
0.174,0.269,7.044,6.442,79.0,10.38,47.05
-0.053,0.186,7.039,6.44,79.0,10.66,46.82
-0.016,0.331,7.034,6.439,79.0,10.59,46.44
0.105,0.435,7.029,6.441,79.0,10.83,46.11
0.319,0.228,7.026,6.445,79.0,10.77,45.87
0.1,0.394,7.025,6.45,79.0,10.84,45.72
-0.105,0.394,7.029,6.458,79.0,10.81,45.56
-0.099,0.58,7.034,6.472,79.0,10.7,45.39
-0.098,0.352,7.044,6.488,79.0,10.67,45.25
-0.103,0.373,7.059,6.507,79.0,10.66,45.15
-0.066,0.311,7.08,6.532,79.0,10.62,45.05
-0.082,0.373,7.104,6.557,79.0,10.45,44.95
-0.122,0.497,7.134,6.587,74.0,10.46,44.85
0.289,0.394,7.169,6.618,74.0,10.48,44.75
-0.106,0.331,7.209,6.656,74.0,10.45,44.53
0.022,0.249,7.253,6.696,74.0,10.48,44.3
0.162,0.352,7.297,6.737,74.0,10.45,44.16
0.366,0.311,7.343,6.778,74.0,10.5,44.11
0.046,0.373,7.392,6.821,74.0,10.51,44.11
-0.088,0.373,7.44,6.864,74.0,10.48,44.05
-0.075,0.414,7.487,6.903,74.0,10.43,44.02
-0.076,0.477,7.533,6.943,74.0,10.51,44.03
-0.089,0.269,7.576,6.983,74.0,10.46,44.04
-0.088,0.394,7.617,7.023,74.0,10.34,44.04
-0.038,0.352,7.655,7.059,74.0,10.46,44.03
-0.07,0.456,7.69,7.093,74.0,10.38,44.01
-0.103,0.228,7.721,7.129,69.0,10.39,44.01
0.277,0.249,7.751,7.164,69.0,10.57,43.99
-0.067,0.331,7.777,7.198,69.0,10.93,43.8
0.041,0.124,7.801,7.228,69.0,11.51,43.67
0.186,0.269,7.821,7.255,69.0,11.92,43.66
0.381,0.166,7.838,7.281,69.0,11.01,43.71
0.038,0.29,7.853,7.307,69.0,10.74,43.73
-0.083,0.145,7.865,7.328,69.0,11.09,43.78
-0.073,0.456,7.874,7.346,69.0,11.32,43.91
-0.077,0.249,7.881,7.362,69.0,11.94,44.06
-0.083,0.186,7.885,7.373,69.0,12.97,44.18
-0.085,2.963,7.885,7.384,69.0,13.28,44.25
-0.066,3.646,7.881,7.395,69.0,13.48,44.25
-0.03,0.642,7.876,7.403,69.0,15.66,44.25
-0.093,0.622,7.869,7.409,66.0,17.65,44.38
0.111,0.373,7.86,7.414,66.0,16.65,44.33
0.078,0.352,7.847,7.419,66.0,14.19,44.05
0.03,0.352,7.829,7.423,66.0,13.76,43.93
0.139,0.497,7.807,7.422,66.0,12.36,44.12
0.379,0.394,7.782,7.419,66.0,11.38,44.46
0.262,0.497,7.76,7.414,66.0,11.87,44.58
-0.047,0.787,7.733,7.408,66.0,11.67,44.51
-0.062,0.767,7.707,7.398,66.0,11.46,44.78
-0.067,0.394,7.684,7.388,66.0,11.12,45.77
-0.079,0.477,7.656,7.374,66.0,10.82,47.23
-0.09,0.29,7.633,7.362,66.0,10.61,48.89
-0.03,0.352,7.632,7.347,66.0,10.32,51.03
-0.086,0.207,7.634,7.331,71.0,10.18,53.47
-0.089,0.249,7.667,7.314,71.0,10.28,55.79
0.265,0.352,7.737,7.294,71.0,10.5,57.91
0.025,0.559,7.778,7.276,71.0,10.45,59.19
0.115,1.388,7.817,7.257,71.0,10.56,60.0
0.273,0.808,7.829,7.239,71.0,10.93,60.32
0.343,0.394,7.865,7.219,71.0,11.35,59.96
-0.091,0.186,7.91,7.198,71.0,11.48,59.73
-0.173,0.311,7.928,7.178,83.0,11.29,60.03
-0.164,0.311,7.929,7.158,83.0,11.51,60.36
-0.153,0.477,7.972,7.137,83.0,11.76,60.42
-0.136,0.477,7.962,7.116,83.0,12.0,60.25
-0.194,0.352,7.953,7.092,83.0,12.28,59.89
0.121,0.456,7.947,7.069,83.0,11.83,59.57
-0.086,0.394,7.941,7.045,83.0,11.62,59.29
-0.009,0.746,7.934,7.023,83.0,11.49,58.82
0.037,0.559,7.925,6.999,83.0,11.22,58.55
0.308,0.787,7.914,6.975,83.0,11.2,58.3
0.116,0.684,7.904,6.954,83.0,11.28,58.18
-0.106,1.015,7.899,6.933,86.0,11.31,58.01
-0.097,0.207,7.892,6.913,86.0,11.4,57.8
-0.137,0.29,7.875,6.9,86.0,11.51,57.39
-0.083,0.186,7.857,6.888,86.0,11.51,57.1
-0.137,0.435,7.829,6.87,86.0,11.5,56.96
0.125,0.186,7.803,6.845,86.0,11.38,56.64
-0.022,0.207,7.776,6.832,86.0,11.27,56.32
-0.019,0.518,7.741,6.816,86.0,11.77,56.11
0.099,0.456,7.712,6.805,86.0,12.25,55.82
0.32,0.186,7.706,6.798,86.0,12.78,55.38
0.128,0.166,7.711,6.797,86.0,12.81,54.83
-0.115,0.559,7.714,6.798,86.0,12.97,54.18
-0.089,0.124,7.721,6.798,86.0,12.73,53.53
-0.079,0.124,7.735,6.791,87.0,12.82,53.02
-0.044,0.787,7.751,6.781,87.0,12.84,52.24
-0.139,1.575,7.771,6.768,87.0,12.4,51.1
0.108,1.16,7.792,6.749,87.0,12.18,49.81
-0.012,0.767,7.817,6.738,87.0,12.03,48.68
-0.015,0.684,7.843,6.736,87.0,11.51,47.86
0.106,0.311,7.87,6.744,87.0,11.34,47.13
0.336,0.186,7.9,6.755,87.0,11.28,46.25
0.135,0.311,7.93,6.768,86.0,11.22,45.58
-0.135,0.124,7.961,6.78,86.0,11.26,45.16
-0.119,0.29,7.996,6.791,86.0,11.32,44.59
-0.102,0.186,8.029,6.804,86.0,11.33,44.13
-0.046,0.083,8.063,6.815,86.0,11.23,44.27
-0.254,0.083,8.098,6.83,86.0,11.12,44.56
-0.026,0.104,8.135,6.846,86.0,11.1,44.9
0.236,0.166,8.17,6.861,86.0,11.05,44.82
-0.077,0.414,8.207,6.88,86.0,11.0,44.98
-0.033,0.207,8.24,6.897,86.0,11.04,45.21
0.18,0.145,8.273,6.917,86.0,10.99,45.43
0.153,0.104,8.305,6.938,86.0,11.04,45.74
-0.113,0.228,8.337,6.959,86.0,10.96,46.16
-0.115,0.124,8.367,6.98,86.0,10.93,46.64
-0.112,0.186,8.395,7.001,84.0,10.96,47.14
-0.053,0.539,8.42,7.021,84.0,10.99,47.5
-0.128,29.669,8.442,7.041,84.0,10.91,47.69
-0.147,8.039,8.461,7.06,84.0,11.0,47.93
0.185,0.622,8.476,7.077,84.0,11.04,48.22
-0.059,0.497,8.489,7.093,84.0,10.98,48.58
0.022,0.29,8.499,7.108,84.0,10.96,48.95
0.201,0.808,8.505,7.123,84.0,10.98,49.47
0.288,1.057,8.509,7.14,87.0,10.96,49.97
-0.072,0.435,8.515,7.153,87.0,10.95,51.03
-0.118,0.29,8.52,7.168,87.0,10.95,51.93
-0.116,0.352,8.52,7.181,87.0,10.91,51.6
-0.047,0.228,8.515,7.194,87.0,10.91,50.76
-0.114,0.228,8.512,7.204,87.0,10.95,50.08
-0.041,0.249,8.506,7.213,87.0,10.96,49.58
0.185,0.435,8.495,7.22,87.0,11.02,49.34
-0.133,0.518,8.484,7.229,87.0,11.01,49.18
-0.028,0.58,8.474,7.235,87.0,11.0,48.78
0.077,0.228,8.463,7.243,87.0,10.99,48.06
0.346,0.394,8.452,7.248,81.0,11.06,47.35
-0.106,0.559,8.438,7.255,81.0,11.1,46.65
-0.16,0.269,8.423,7.26,81.0,11.13,45.86
-0.156,0.249,8.408,7.265,81.0,11.04,45.18
-0.143,0.394,8.393,7.27,81.0,11.02,44.61
-0.089,0.352,8.379,7.275,81.0,11.04,43.78
-0.153,0.352,8.366,7.277,81.0,11.09,43.09
-0.077,0.186,8.351,7.28,81.0,11.13,43.08
0.095,0.539,8.34,7.281,81.0,11.24,43.2
-0.095,0.684,8.326,7.281,81.0,11.31,43.1
0.024,0.331,8.312,7.281,81.0,11.29,42.86
0.223,0.145,8.3,7.28,81.0,11.26,42.62
0.167,0.249,8.289,7.277,81.0,11.22,42.4
-0.115,0.311,8.275,7.275,81.0,11.29,42.24
-0.143,0.497,8.265,7.27,81.0,11.23,42.2
-0.149,0.186,8.257,7.262,81.0,10.66,42.32
-0.108,0.331,8.247,7.256,81.0,10.41,42.22
-0.07,0.186,8.235,7.248,81.0,12.0,41.96
-0.111,0.394,8.223,7.239,81.0,14.52,41.77
0.234,0.166,8.21,7.229,81.0,24.76,41.75
0.003,0.394,8.195,7.219,81.0,29.69,41.77
0.041,0.29,8.181,7.21,81.0,19.33,41.66
0.162,0.249,8.167,7.199,81.0,13.25,41.61
0.376,0.249,8.153,7.189,81.0,12.27,41.65
0.151,0.269,8.14,7.176,81.0,11.59,41.6
-0.008,0.228,8.125,7.165,81.0,11.46,41.48
-0.022,0.518,8.113,7.153,81.0,11.22,41.29
-0.005,0.331,8.098,7.141,79.0,11.05,41.07
0.006,0.435,8.083,7.128,79.0,11.05,40.73
0.051,0.228,8.068,7.116,79.0,10.93,40.34
-0.017,0.249,8.05,7.103,79.0,10.89,40.19
0.218,0.394,8.035,7.088,79.0,10.9,40.51
0.102,0.414,8.021,7.076,79.0,11.12,41.62
0.102,0.331,8.006,7.062,79.0,11.37,43.29
0.204,0.249,7.988,7.049,79.0,11.82,44.8
0.426,0.249,7.977,7.035,79.0,12.12,45.67
0.287,0.311,7.967,7.022,79.0,12.38,45.88
0.006,0.518,7.958,7.01,79.0,12.48,46.23
-0.003,0.249,7.948,6.996,79.0,12.42,47.13
-0.037,0.331,7.877,6.982,79.0,12.22,48.2
0.003,0.394,7.797,6.969,79.0,12.22,49.29
0.042,0.207,7.841,6.957,79.0,11.38,50.44
-0.077,0.249,7.931,6.942,79.0,10.78,52.25
-0.087,0.435,7.913,6.929,79.0,10.72,54.55
0.143,0.29,7.823,6.917,79.0,10.98,56.18
0.001,0.249,7.761,6.903,79.0,10.87,57.62
0.094,0.249,7.771,6.889,87.0,10.79,59.07
0.265,0.456,7.808,6.877,87.0,10.78,60.51
0.247,0.394,7.832,6.866,87.0,10.79,61.64
-0.1,0.249,7.858,6.853,87.0,10.79,62.65
-0.119,0.311,7.895,6.841,87.0,10.79,63.01
-0.104,0.186,7.951,6.83,87.0,10.81,63.1
-0.056,0.228,7.968,6.818,87.0,10.81,63.25
-0.153,0.435,7.979,6.806,87.0,10.82,63.42
-0.101,0.249,7.988,6.796,87.0,10.83,63.71
0.134,0.166,7.993,6.784,87.0,10.83,63.98
-0.033,0.145,7.999,6.774,87.0,10.84,64.59
0.054,0.124,8.003,6.764,87.0,10.84,64.69
0.244,0.352,8.002,6.751,87.0,10.84,64.42
0.157,0.249,8.0,6.741,89.0,10.84,63.76
-0.12,0.684,7.99,6.731,89.0,10.84,63.32
-0.126,0.228,7.959,6.721,89.0,10.84,62.63
-0.109,0.166,7.901,6.713,89.0,10.85,61.51
-0.085,0.331,7.827,6.704,89.0,10.85,60.66
-0.178,0.373,7.774,6.697,89.0,10.87,60.0
0.208,0.331,7.745,6.689,89.0,10.85,59.74
-0.099,0.228,7.722,6.683,89.0,10.85,59.52
-0.027,0.124,7.696,6.678,89.0,10.84,59.28
0.095,0.124,7.684,6.676,89.0,10.84,58.62
0.289,0.435,7.679,6.676,89.0,10.85,58.11
-0.006,0.228,7.679,6.678,89.0,10.85,57.8
-0.175,0.186,7.68,6.682,89.0,10.85,57.55
-0.167,0.228,7.688,6.692,89.0,10.85,57.41
-0.168,0.373,7.706,6.702,89.0,10.85,57.41
-0.139,0.497,7.731,6.713,89.0,10.84,57.44
-0.192,0.207,7.758,6.728,89.0,10.85,57.46
0.213,1.761,7.792,6.743,89.0,10.84,57.46
-0.076,1.616,7.831,6.759,89.0,10.85,57.41
-0.012,1.202,7.873,6.777,89.0,10.85,57.46
0.139,0.891,7.92,6.798,89.0,10.85,57.49
0.258,1.409,7.968,6.82,89.0,10.85,57.5
-0.078,0.58,8.014,6.842,89.0,10.85,57.29
-0.143,0.145,8.061,6.864,89.0,10.84,56.71
-0.139,0.145,8.108,6.885,89.0,10.84,55.55
-0.087,0.414,8.152,6.906,89.0,10.84,54.38
-0.175,0.207,8.197,6.926,89.0,10.84,53.75
-0.138,0.124,8.244,6.946,89.0,10.84,53.67
0.163,0.124,8.286,6.962,89.0,10.84,53.51
-0.08,0.124,8.324,6.98,89.0,10.84,53.61
0.041,0.145,8.356,6.994,89.0,10.84,53.86
0.193,0.124,8.383,7.007,89.0,10.84,53.94
0.191,0.228,8.421,7.019,89.0,10.84,53.75
-0.074,0.104,8.447,7.027,89.0,10.84,53.42
-0.146,0.497,8.467,7.037,89.0,10.84,53.07
-0.153,0.145,8.485,7.045,89.0,10.84,52.66
-0.073,0.456,8.496,7.05,89.0,10.84,52.26
-0.159,0.228,8.503,7.054,89.0,10.84,51.64
0.192,0.145,8.504,7.056,89.0,10.84,50.93
-0.085,0.249,8.5,7.06,86.0,10.84,50.29
-0.05,0.104,8.495,7.06,86.0,10.84,49.69
0.09,0.124,8.486,7.06,86.0,10.84,49.12
0.282,0.104,8.476,7.06,86.0,10.83,48.6
0.051,0.145,8.461,7.059,86.0,10.83,48.1
-0.11,0.145,8.442,7.056,86.0,10.82,47.54
-0.102,0.207,8.421,7.054,86.0,10.83,47.18
-0.101,0.207,8.398,7.049,86.0,10.83,46.97
-0.067,0.497,8.374,7.044,86.0,10.82,46.9
-0.143,0.124,8.346,7.039,86.0,10.82,46.78
0.063,0.166,8.319,7.031,86.0,10.81,46.68
0.005,0.166,8.29,7.025,86.0,10.81,46.66
-0.041,0.166,8.263,7.017,86.0,10.81,46.71
0.064,0.124,8.233,7.01,87.0,10.81,46.83
0.256,0.124,8.206,7.0,87.0,10.81,47.0
0.073,0.145,8.177,6.99,87.0,10.81,47.13
-0.143,0.145,8.15,6.979,87.0,10.81,47.33
-0.121,0.207,8.123,6.968,87.0,10.81,47.69
-0.092,0.311,8.095,6.958,87.0,10.81,48.13
-0.036,0.352,8.068,6.945,87.0,10.82,48.55
-0.108,0.166,8.043,6.933,87.0,10.81,48.87
0.034,0.186,8.018,6.922,87.0,10.81,49.19
0.11,0.145,7.993,6.909,87.0,10.81,49.52
0.017,0.104,7.97,6.898,87.0,10.81,49.89
0.123,0.166,7.947,6.886,84.0,10.81,50.27
0.317,0.166,7.925,6.873,84.0,10.79,50.61
0.186,0.145,7.904,6.861,84.0,10.79,50.91
-0.062,0.166,7.883,6.848,84.0,10.81,51.35
-0.067,0.166,7.863,6.836,84.0,10.81,51.89
-0.067,0.394,7.844,6.823,84.0,10.81,52.45
-0.016,0.207,7.826,6.812,84.0,10.79,52.86
-0.095,0.124,7.808,6.8,84.0,10.81,53.08
-0.115,0.145,7.789,6.789,84.0,10.79,53.27
0.215,0.124,7.772,6.779,84.0,10.79,53.44
-0.04,0.124,7.756,6.766,89.0,10.81,53.51
0.044,0.104,7.74,6.756,89.0,10.79,53.57
0.221,0.166,7.725,6.745,89.0,10.79,53.55
0.25,0.166,7.71,6.734,89.0,10.79,53.41
-0.072,0.104,7.697,6.724,89.0,10.81,53.29
-0.104,0.352,7.682,6.714,89.0,10.79,53.19
-0.1,0.186,7.67,6.704,89.0,10.79,53.1
-0.063,0.104,7.656,6.694,89.0,10.79,52.9
-0.148,0.166,7.644,6.687,93.0,10.79,52.7
0.008,0.083,7.631,6.676,93.0,10.79,52.58
0.065,0.124,7.62,6.667,93.0,10.79,52.44
-0.036,0.166,7.608,6.657,93.0,10.79,52.23
0.073,0.207,7.597,6.649,93.0,10.79,51.99
0.27,0.145,7.587,6.641,93.0,10.79,51.67
0.107,0.145,7.576,6.632,93.0,10.79,51.37
-0.107,0.352,7.564,6.625,93.0,10.79,51.14
-0.116,0.311,7.554,6.617,93.0,10.79,50.98
-0.056,0.104,7.544,6.61,93.0,10.79,50.73
-0.121,0.124,7.534,6.602,88.0,10.79,50.47
-0.158,0.145,7.527,6.595,88.0,10.79,50.23
0.222,0.083,7.516,6.589,88.0,10.78,49.98
-0.074,0.104,7.509,6.584,88.0,10.79,49.67
0.005,0.104,7.501,6.579,88.0,10.78,49.38
0.174,0.083,7.494,6.574,88.0,10.79,48.92
0.217,0.166,7.486,6.571,88.0,10.79,48.55
-0.104,0.124,7.481,6.57,88.0,10.79,48.29
-0.139,0.228,7.476,6.568,88.0,10.79,48.13
-0.131,0.435,7.475,6.57,88.0,10.79,47.97
-0.077,0.124,7.473,6.57,88.0,10.79,47.72
-0.164,0.104,7.474,6.573,88.0,10.79,47.51
-0.119,0.104,7.475,6.578,88.0,10.79,47.35
0.166,0.124,7.478,6.581,88.0,10.79,47.19
-0.063,0.124,7.481,6.586,83.0,10.79,47.0
0.033,0.331,7.485,6.594,83.0,10.79,46.82
0.235,0.104,7.491,6.601,83.0,10.79,46.5
0.142,0.104,7.495,6.606,83.0,10.79,46.2
-0.131,0.104,7.499,6.614,83.0,10.79,46.07
-0.132,0.104,7.504,6.62,83.0,10.79,46.03
-0.132,0.373,7.506,6.626,83.0,10.79,46.02
-0.094,0.29,7.511,6.631,83.0,10.79,45.94
-0.118,0.145,7.513,6.636,83.0,10.79,45.96
-0.158,0.124,7.516,6.641,83.0,10.79,45.99
0.245,0.124,7.517,6.645,83.0,10.79,46.03
-0.15,0.083,7.517,6.648,83.0,10.79,46.05
-0.021,0.104,7.517,6.65,78.0,10.81,46.03
0.114,0.083,7.517,6.652,78.0,10.81,46.02
0.289,0.083,7.516,6.655,78.0,10.81,45.87
-0.03,0.083,7.515,6.656,78.0,10.81,45.73
-0.137,0.104,7.511,6.657,78.0,10.81,45.71
-0.126,0.083,7.509,6.657,78.0,10.81,45.79
-0.132,0.145,7.504,6.656,78.0,10.82,45.9
-0.112,0.394,7.499,6.655,78.0,10.82,45.94
-0.095,0.331,7.494,6.653,78.0,10.82,45.97
-0.161,0.104,7.487,6.652,78.0,10.82,45.97
0.103,0.124,7.481,6.65,78.0,10.83,45.99
-0.052,0.186,7.474,6.648,78.0,10.83,45.99
-0.042,0.186,7.466,6.645,78.0,10.83,45.98
0.075,0.083,7.459,6.641,72.0,10.83,45.98
0.282,0.166,7.45,6.638,72.0,10.83,46.0
0.081,0.145,7.441,6.633,72.0,10.83,45.89
-0.127,0.124,7.432,6.63,72.0,10.83,45.8
-0.125,0.124,7.423,6.626,72.0,10.84,45.82
-0.133,0.311,7.415,6.621,72.0,10.83,45.9
-0.14,0.249,7.405,6.615,72.0,10.83,45.97
-0.137,0.104,7.398,6.61,72.0,10.83,45.99
-0.074,0.083,7.388,6.604,72.0,10.83,46.0
-0.135,0.124,7.38,6.599,72.0,10.83,46.04
-0.131,0.083,7.37,6.592,72.0,10.83,46.07
0.191,0.083,7.363,6.586,84.0,10.83,46.07
-0.036,0.124,7.354,6.579,84.0,10.83,46.06
0.046,0.124,7.345,6.572,84.0,10.83,45.92
0.228,0.145,7.338,6.565,84.0,10.82,45.82
0.248,0.124,7.331,6.559,84.0,10.82,45.81
-0.088,0.104,7.323,6.551,84.0,10.82,45.85
-0.116,0.435,7.316,6.544,84.0,10.82,45.85
-0.113,0.228,7.308,6.537,84.0,10.82,45.83
-0.075,0.104,7.301,6.529,84.0,10.82,45.85
-0.107,0.104,7.295,6.522,84.0,10.82,45.9
-0.15,0.104,7.287,6.514,84.0,10.82,45.94
0.206,0.145,7.28,6.507,84.0,10.82,45.95
-0.115,0.083,7.275,6.499,80.0,10.82,45.95
0.008,0.104,7.267,6.493,80.0,10.82,45.92
0.164,0.104,7.261,6.487,80.0,10.82,45.79
0.322,0.124,7.255,6.479,80.0,10.82,45.75
-0.029,0.145,7.25,6.473,80.0,10.82,45.8
-0.115,0.145,7.243,6.465,80.0,10.82,45.87
-0.101,0.104,7.238,6.459,80.0,10.82,45.9
-0.104,0.124,7.231,6.452,80.0,10.82,45.92
-0.059,0.352,7.225,6.447,80.0,10.82,45.98
-0.084,0.311,7.22,6.441,80.0,10.82,46.02
-0.124,0.124,7.215,6.435,80.0,10.82,46.07
0.242,0.166,7.21,6.43,80.0,10.82,46.09
-0.107,0.145,7.203,6.422,80.0,10.82,46.11
0.029,0.166,7.198,6.417,80.0,10.82,46.11
0.177,0.124,7.193,6.411,64.0,10.82,46.13
0.361,0.083,7.188,6.405,64.0,10.82,46.18
0.026,0.104,7.183,6.4,64.0,10.82,46.08
-0.081,0.124,7.178,6.395,64.0,10.82,46.05
-0.074,0.104,7.173,6.39,64.0,10.82,46.18
-0.081,0.083,7.168,6.383,64.0,10.82,46.31
-0.087,0.124,7.16,6.377,64.0,10.82,46.36
-0.087,0.124,7.156,6.372,64.0,10.82,46.32
-0.087,0.394,7.151,6.367,64.0,10.82,46.33
-0.033,0.186,7.146,6.363,64.0,10.82,46.36
-0.089,0.083,7.143,6.358,64.0,10.82,46.38
-0.106,0.145,7.138,6.353,64.0,10.82,46.37
0.221,0.104,7.133,6.348,64.0,10.82,46.34
-0.014,0.083,7.128,6.343,64.0,10.82,46.29
0.066,0.104,7.123,6.34,67.0,10.82,46.27
0.226,0.083,7.118,6.335,67.0,10.82,46.23
0.351,0.104,7.113,6.33,67.0,10.82,46.04
-0.006,0.104,7.108,6.325,67.0,10.82,45.94
-0.076,0.124,7.106,6.321,67.0,10.82,45.96
-0.073,0.124,7.101,6.317,67.0,10.82,45.99
-0.091,0.083,7.096,6.313,67.0,10.82,45.98
-0.099,0.083,7.091,6.308,67.0,10.82,45.96
-0.1,0.394,7.087,6.304,67.0,10.82,45.99
-0.061,0.166,7.083,6.3,67.0,10.82,46.03
-0.09,0.083,7.078,6.297,67.0,10.82,46.05
-0.119,0.124,7.073,6.293,67.0,10.82,46.07
0.248,0.104,7.071,6.289,67.0,10.82,46.05
-0.112,0.104,7.066,6.285,67.0,10.82,46.05
0.016,0.124,7.063,6.28,66.0,10.82,46.05
0.151,0.083,7.059,6.278,66.0,10.82,46.02
0.347,0.104,7.054,6.273,66.0,10.82,45.86
0.035,0.104,7.05,6.27,66.0,10.82,45.78
-0.111,0.104,7.046,6.266,66.0,10.82,45.8
-0.108,0.145,7.041,6.262,66.0,10.82,45.84
-0.117,0.124,7.039,6.258,66.0,10.82,45.86
-0.125,0.124,7.034,6.256,66.0,10.82,45.86
-0.129,0.435,7.031,6.251,66.0,10.82,45.89
-0.114,0.124,7.026,6.248,66.0,10.82,45.94
-0.081,0.083,7.024,6.245,66.0,10.82,45.99
-0.139,0.124,7.021,6.243,66.0,10.82,46.03
-0.015,0.124,7.018,6.24,66.0,10.82,46.11
0.078,0.083,7.016,6.237,66.0,10.82,46.22
-0.017,0.104,7.015,6.235,66.0,10.82,46.33
0.079,0.124,7.013,6.232,66.0,10.81,46.4
0.285,0.104,7.013,6.23,66.0,10.81,46.36
0.205,0.124,7.01,6.228,66.0,10.81,46.45
-0.102,0.124,7.01,6.226,66.0,10.81,46.68
-0.12,0.124,7.008,6.223,66.0,10.81,46.97
-0.124,0.124,7.008,6.221,66.0,10.81,47.21
-0.134,0.124,7.006,6.218,66.0,10.81,47.39
-0.139,0.435,7.005,6.217,66.0,10.81,47.58
-0.139,0.207,7.005,6.215,66.0,10.81,47.8
-0.086,0.145,7.003,6.212,66.0,10.81,48.06
-0.129,0.145,7.003,6.211,66.0,10.81,48.31
-0.151,0.145,7.001,6.208,66.0,10.81,48.58
0.171,0.124,7.0,6.206,66.0,10.81,48.84
-0.088,0.166,6.998,6.203,67.0,10.81,49.11
0.008,0.124,6.998,6.201,67.0,10.81,49.32
0.166,0.124,6.995,6.2,67.0,10.81,49.41
0.331,0.104,6.993,6.196,67.0,10.81,49.57
-0.031,0.083,6.99,6.195,67.0,10.81,49.8
-0.127,0.145,6.986,6.191,67.0,10.81,50.07
-0.116,0.145,6.984,6.188,67.0,10.81,50.22
-0.126,0.352,6.981,6.186,67.0,10.81,50.29
-0.131,0.331,6.979,6.184,67.0,10.81,50.37
-0.133,0.124,6.976,6.18,67.0,10.81,50.48
-0.117,0.124,6.972,6.179,67.0,10.81,50.59
-0.094,0.104,6.969,6.176,67.0,10.81,50.7
-0.148,0.124,6.964,6.173,67.0,10.81,50.75
0.107,0.124,6.962,6.171,70.0,10.81,50.8
-0.063,0.104,6.957,6.168,70.0,10.82,50.82
-0.035,0.124,6.954,6.164,70.0,10.81,50.72
0.072,0.145,6.949,6.161,70.0,10.81,50.62
0.29,0.104,6.944,6.159,70.0,10.82,50.59
0.134,0.104,6.939,6.156,70.0,10.82,50.61
-0.123,0.104,6.937,6.154,70.0,10.82,50.6
-0.124,0.269,6.932,6.15,70.0,10.81,50.49
-0.123,0.29,6.929,6.148,70.0,10.81,50.39
-0.129,0.104,6.924,6.144,70.0,10.81,50.32
-0.13,0.104,6.919,6.141,70.0,10.81,50.23
-0.086,0.083,6.916,6.138,70.0,10.81,50.15
-0.11,0.124,6.912,6.135,70.0,10.81,50.01
-0.136,0.083,6.907,6.131,70.0,10.81,49.81
0.223,0.166,6.903,6.129,70.0,10.81,49.61
-0.104,0.166,6.899,6.125,70.0,10.81,49.28
0.01,0.145,6.894,6.123,70.0,10.82,48.97
0.156,0.104,6.892,6.12,70.0,10.81,48.74
0.34,0.145,6.887,6.116,70.0,10.81,48.57
0.006,0.124,6.882,6.114,70.0,10.82,48.42
-0.108,0.124,6.88,6.11,70.0,10.81,48.21
-0.101,0.414,6.875,6.108,70.0,10.81,48.0
-0.104,0.207,6.871,6.104,70.0,10.81,47.84
-0.107,0.124,6.867,6.101,70.0,10.81,47.7
-0.099,0.104,6.864,6.099,70.0,10.81,47.53
-0.053,0.104,6.86,6.096,70.0,10.81,47.36
-0.117,0.145,6.856,6.092,70.0,10.81,47.16
-0.043,0.083,6.852,6.089,68.0,10.82,46.97
0.17,0.104,6.849,6.087,68.0,10.81,46.77
-0.009,0.104,6.845,6.084,68.0,10.81,46.45
0.088,0.145,6.842,6.081,68.0,10.81,46.25
0.291,0.124,6.837,6.078,68.0,10.81,46.17
0.241,0.124,6.835,6.074,68.0,10.81,46.16
-0.074,0.062,6.831,6.072,68.0,10.81,46.15
-0.088,0.124,6.827,6.068,68.0,10.81,46.1
-0.085,0.435,6.825,6.066,68.0,10.81,46.1
-0.094,0.228,6.821,6.062,68.0,10.81,46.13
-0.102,0.124,6.817,6.059,68.0,10.81,46.16
-0.094,0.124,6.815,6.057,68.0,10.81,46.16
-0.046,0.166,6.812,6.054,68.0,10.81,46.14
-0.106,0.124,6.809,6.051,68.0,10.81,46.14
-0.086,0.124,6.805,6.047,65.0,10.81,46.14
0.218,0.124,6.803,6.046,65.0,10.81,46.12
-0.006,0.145,6.799,6.042,65.0,10.81,45.95
0.083,0.104,6.795,6.039,65.0,10.81,45.86
0.282,0.083,6.793,6.037,65.0,10.81,45.88
0.298,0.166,6.79,6.033,65.0,10.81,45.91
-0.06,0.145,6.787,6.031,65.0,10.81,45.94
-0.088,0.124,6.784,6.028,65.0,10.81,45.94
-0.084,0.352,6.78,6.026,65.0,10.81,45.98
-0.098,0.269,6.778,6.024,65.0,10.81,46.03
-0.105,0.124,6.775,6.022,65.0,10.81,46.07
-0.106,0.104,6.772,6.018,65.0,10.81,46.08
-0.069,0.124,6.769,6.016,65.0,10.81,46.08
-0.089,0.104,6.767,6.014,65.0,10.81,46.08
-0.125,0.124,6.764,6.012,65.0,10.81,46.08
0.267,0.104,6.762,6.009,65.0,10.81,46.09
-0.121,0.104,6.759,6.007,65.0,10.81,45.96
0.015,0.124,6.757,6.004,65.0,10.81,45.84
0.147,0.124,6.753,6.002,65.0,10.81,45.85
0.374,0.104,6.75,6.0,65.0,10.81,45.88
0.09,0.124,6.749,5.997,65.0,10.81,45.93
-0.098,0.145,6.747,5.995,65.0,10.81,45.93
-0.094,0.145,6.743,5.991,65.0,10.81,46.0
-0.092,0.331,6.742,5.991,65.0,10.81,46.0
-0.099,0.124,6.739,5.989,65.0,10.81,46.05
-0.103,0.083,6.738,5.986,65.0,10.81,46.08
-0.104,0.124,6.734,5.985,65.0,10.81,46.08
-0.049,0.124,6.733,5.984,65.0,10.81,46.08
-0.104,0.104,6.73,5.98,65.0,10.81,46.13
-0.12,0.104,6.729,5.979,65.0,10.81,46.24
0.218,0.124,6.727,5.976,65.0,10.81,46.23
-0.029,0.124,6.724,5.974,65.0,10.81,46.19
0.049,0.124,6.722,5.972,65.0,10.81,46.27
0.216,0.124,6.72,5.97,65.0,10.81,46.45
0.366,0.124,6.718,5.967,65.0,10.81,46.7
-0.016,0.124,6.716,5.965,65.0,10.81,46.9
-0.098,0.166,6.715,5.964,65.0,10.81,47.09
-0.089,0.414,6.712,5.961,65.0,10.81,47.32
-0.095,0.124,6.708,5.959,65.0,10.81,47.56
-0.103,0.083,6.706,5.956,65.0,10.81,47.78
-0.103,0.124,6.703,5.955,65.0,10.81,47.98
-0.094,0.104,6.701,5.952,65.0,10.81,48.15
-0.049,0.104,6.698,5.95,65.0,10.81,48.33
-0.111,0.104,6.696,5.947,65.0,10.81,48.5
-0.084,0.145,6.693,5.945,65.0,10.81,48.57
0.197,0.145,6.69,5.944,65.0,10.81,48.6
-0.011,0.145,6.687,5.941,65.0,10.81,48.74
0.073,0.166,6.683,5.939,65.0,10.81,48.93
0.275,0.124,6.681,5.936,65.0,10.81,49.13
0.306,0.166,6.677,5.934,65.0,10.81,49.24
-0.061,0.352,6.676,5.931,65.0,10.81,49.32
-0.098,0.228,6.672,5.93,65.0,10.81,49.43
-0.092,0.124,6.668,5.927,65.0,10.81,49.56
-0.104,0.104,6.666,5.925,65.0,10.81,49.7
-0.114,0.124,6.662,5.922,65.0,10.81,49.83
-0.114,0.145,6.66,5.92,65.0,10.81,49.89
-0.085,0.124,6.656,5.918,68.0,10.81,49.96
-0.084,0.104,6.653,5.915,68.0,10.81,50.01
-0.126,0.124,6.651,5.913,68.0,10.81,49.92
0.241,0.104,6.648,5.912,68.0,10.81,49.86
-0.129,0.124,6.645,5.908,68.0,10.81,49.88
-0.001,0.145,6.642,5.907,68.0,10.81,49.92
0.119,0.124,6.638,5.904,68.0,10.81,49.94
0.347,0.269,6.636,5.902,68.0,10.81,49.88
0.108,0.331,6.633,5.9,68.0,10.81,49.81
-0.109,0.104,6.63,5.897,68.0,10.81,49.81
-0.108,0.104,6.627,5.894,68.0,10.81,49.84
-0.109,0.104,6.625,5.893,68.0,10.81,49.86
-0.117,0.124,6.621,5.89,68.0,10.81,49.83
-0.121,0.104,6.619,5.888,69.0,10.81,49.77
-0.087,0.124,6.616,5.885,69.0,10.81,49.69
-0.099,0.104,6.614,5.883,69.0,10.81,49.48
-0.135,0.124,6.61,5.88,69.0,10.81,49.26
0.247,0.166,6.608,5.879,69.0,10.81,49.1
-0.132,0.104,6.605,5.877,69.0,10.81,48.96
0.0,0.145,6.601,5.874,69.0,10.81,48.85
0.128,0.145,6.6,5.872,69.0,10.81,48.65
0.351,0.414,6.596,5.869,69.0,10.81,48.4
0.062,0.207,6.594,5.867,69.0,10.81,48.2
-0.112,0.104,6.591,5.865,69.0,10.81,48.03
-0.105,0.145,6.589,5.863,69.0,10.81,47.85
-0.102,0.083,6.586,5.86,69.0,10.81,47.65
-0.107,0.124,6.583,5.858,69.0,10.81,47.43
-0.109,0.104,6.58,5.857,68.0,10.81,47.21
-0.058,0.104,6.578,5.854,68.0,10.81,46.99
-0.107,0.104,6.575,5.85,68.0,10.81,46.66
-0.128,0.104,6.571,5.849,68.0,10.81,46.4
0.23,0.124,6.57,5.847,68.0,10.81,46.29
-0.046,0.083,6.566,5.844,68.0,10.81,46.24
0.039,0.104,6.565,5.843,68.0,10.81,46.23
0.203,0.331,6.561,5.84,68.0,10.81,46.15
0.346,0.394,6.559,5.839,68.0,10.81,46.12
-0.023,0.311,6.556,5.835,68.0,10.81,46.14
-0.103,0.104,6.554,5.834,70.0,10.81,46.16
-0.096,0.124,6.551,5.832,70.0,10.81,46.16
-0.102,0.124,6.548,5.828,70.0,10.81,46.14
-0.108,0.104,6.548,5.827,70.0,10.81,46.15
-0.106,0.145,6.545,5.826,70.0,10.81,46.14
-0.058,0.145,6.544,5.825,70.0,10.81,46.14
-0.095,0.166,6.541,5.822,70.0,10.81,46.04
-0.121,0.083,6.54,5.821,70.0,10.81,45.9
0.258,0.124,6.539,5.818,70.0,10.81,45.87
-0.073,0.083,6.538,5.817,70.0,10.81,45.89
0.035,0.104,6.536,5.815,70.0,10.81,45.93
0.183,0.104,6.534,5.812,70.0,10.81,45.94
0.387,0.083,6.533,5.811,70.0,10.81,45.96
0.034,0.477,6.531,5.81,70.0,10.79,46.0
-0.097,0.166,6.531,5.807,70.0,10.81,46.05
-0.089,0.104,6.528,5.806,70.0,10.81,46.08
-0.092,0.124,6.527,5.805,70.0,10.81,46.08
-0.099,0.083,6.526,5.802,70.0,10.81,46.08
-0.103,0.104,6.523,5.8,70.0,10.81,46.08
-0.098,0.124,6.523,5.797,88.0,10.81,46.08
-0.049,0.145,6.521,5.796,88.0,10.81,46.05
-0.1,0.104,6.519,5.793,88.0,10.81,45.9
0.269,0.104,6.517,5.792,88.0,10.81,45.85
0.221,0.124,6.516,5.79,88.0,10.81,45.87
-0.018,0.145,6.513,5.788,88.0,10.81,45.9
0.062,0.104,6.511,5.786,88.0,10.81,45.93
0.25,0.083,6.508,5.783,88.0,10.81,45.93
0.344,0.228,6.506,5.782,88.0,10.81,45.96
-0.045,0.331,6.504,5.781,88.0,10.81,46.02
-0.104,0.104,6.502,5.778,88.0,10.81,46.07
-0.097,0.124,6.499,5.776,88.0,10.82,46.12
-0.104,0.124,6.497,5.775,88.0,10.82,46.18
-0.107,0.124,6.494,5.772,88.0,10.82,46.23
-0.111,0.104,6.492,5.77,63.0,10.82,46.31
-0.098,0.104,6.489,5.767,63.0,10.82,46.43
-0.061,0.145,6.487,5.766,63.0,10.82,46.44
-0.12,0.104,6.484,5.763,63.0,10.82,46.46
-0.063,0.124,6.481,5.761,63.0,10.82,46.61
0.179,0.104,6.479,5.76,63.0,10.82,46.84
-0.012,0.145,6.477,5.757,63.0,10.82,47.09
0.077,0.124,6.473,5.755,63.0,10.82,47.26
0.285,0.166,6.471,5.752,63.0,10.82,47.44
0.292,0.352,6.469,5.751,63.0,10.82,47.67
-0.07,0.166,6.466,5.748,63.0,10.82,47.92
-0.103,0.104,6.463,5.747,63.0,10.82,48.14
-0.093,0.104,6.461,5.745,63.0,10.82,48.35
-0.104,0.083,6.458,5.743,63.0,10.82,48.53
-0.109,0.145,6.456,5.741,63.0,10.82,48.69
-0.109,0.104,6.453,5.74,64.0,10.82,48.87
-0.094,0.104,6.45,5.738,64.0,10.82,49.0
-0.047,0.124,6.447,5.735,64.0,10.82,49.03
-0.11,0.124,6.445,5.734,64.0,10.82,49.1
-0.1,0.124,6.442,5.731,64.0,10.82,49.23
0.205,0.104,6.44,5.729,64.0,10.82,49.38
-0.015,0.124,6.437,5.728,64.0,10.82,49.5
0.067,0.145,6.435,5.725,64.0,10.82,49.53
0.259,0.373,6.431,5.723,64.0,10.82,49.57
0.333,0.124,6.429,5.721,64.0,10.82,49.65
-0.05,0.124,6.426,5.719,64.0,10.82,49.72
-0.099,0.124,6.424,5.718,64.0,10.82,49.77
-0.091,0.104,6.421,5.716,64.0,10.82,49.8
-0.101,0.124,6.417,5.714,67.0,10.82,49.8
-0.108,0.083,6.416,5.713,67.0,10.82,49.8
-0.11,0.124,6.414,5.71,67.0,10.82,49.71
-0.098,0.104,6.411,5.708,67.0,10.82,49.55
-0.059,0.166,6.407,5.706,67.0,10.82,49.48
-0.117,0.124,6.406,5.705,67.0,10.82,49.47
-0.07,0.104,6.404,5.703,67.0,10.82,49.47
0.186,0.145,6.401,5.7,67.0,10.82,49.4
-0.011,0.29,6.399,5.698,67.0,10.82,49.28
0.072,0.29,6.396,5.698,67.0,10.82,49.18
0.273,0.124,6.394,5.695,67.0,10.82,49.12
0.296,0.104,6.392,5.695,67.0,10.82,49.05
-0.065,0.104,6.391,5.695,67.0,10.82,48.94
-0.102,0.104,6.389,5.693,67.0,10.82,48.79
-0.097,0.104,6.389,5.693,68.0,10.82,48.65
-0.102,0.104,6.39,5.693,68.0,10.82,48.49
-0.106,0.124,6.391,5.693,68.0,10.82,48.18
-0.102,0.104,6.395,5.694,68.0,10.82,47.92
-0.052,0.062,6.397,5.695,68.0,10.82,47.75
-0.11,0.104,6.402,5.695,68.0,10.82,47.65
-0.119,0.104,6.41,5.698,68.0,10.82,47.58
0.217,0.145,6.416,5.699,68.0,10.82,47.46
-0.031,0.104,6.423,5.7,68.0,10.82,47.33
0.046,0.414,6.432,5.704,68.0,10.82,47.21
0.225,0.124,6.441,5.705,68.0,10.82,47.11
0.315,0.083,6.448,5.708,68.0,10.82,46.99
-0.068,0.104,6.458,5.709,68.0,10.82,46.88
-0.124,0.083,6.465,5.711,68.0,10.82,46.76
-0.116,0.124,6.474,5.714,68.0,10.82,46.66
-0.122,0.104,6.483,5.716,64.0,10.82,46.57
-0.126,0.083,6.489,5.718,64.0,10.82,46.4
-0.126,0.124,6.497,5.72,64.0,10.82,46.18
-0.073,0.166,6.502,5.72,64.0,10.82,46.08
-0.116,0.104,6.509,5.723,64.0,10.82,46.08
-0.132,0.104,6.513,5.723,64.0,10.82,46.08
0.227,0.083,6.518,5.725,64.0,10.82,46.09
-0.057,0.083,6.522,5.725,64.0,10.82,46.08
0.03,0.331,6.524,5.725,64.0,10.82,46.09
0.191,0.373,6.528,5.725,64.0,10.82,46.12
0.36,0.104,6.531,5.725,64.0,10.82,46.16
-0.009,0.124,6.532,5.725,64.0,10.82,46.16
-0.101,0.104,6.533,5.725,64.0,10.82,46.15
-0.089,0.104,6.533,5.725,64.0,10.82,46.16
-0.087,0.124,6.533,5.725,63.0,10.82,46.15
-0.09,0.083,6.533,5.725,63.0,10.82,46.16
-0.085,0.104,6.532,5.725,63.0,10.82,46.05
-0.072,0.083,6.531,5.724,63.0,10.82,45.94
-0.02,0.124,6.529,5.723,63.0,10.82,45.92
-0.071,0.104,6.527,5.723,63.0,10.82,45.94
-0.049,0.104,6.523,5.721,63.0,10.82,45.99
0.268,0.145,6.519,5.72,63.0,10.82,46.0
0.04,0.083,6.517,5.72,63.0,10.82,46.0
0.125,0.414,6.512,5.718,63.0,10.82,46.06
0.33,0.186,6.509,5.716,63.0,10.82,46.1
0.398,0.104,6.504,5.715,63.0,10.82,46.13
0.014,0.104,6.499,5.713,63.0,10.82,46.14
-0.034,0.124,6.494,5.711,63.0,10.82,46.12
-0.031,0.083,6.492,5.71,63.0,10.82,46.14
-0.044,0.104,6.487,5.708,64.0,10.82,46.14
-0.052,0.124,6.482,5.705,64.0,10.82,46.12
-0.057,0.104,6.477,5.704,64.0,10.82,45.98
-0.055,0.104,6.472,5.701,64.0,10.82,45.92
0.0,0.124,6.467,5.699,64.0,10.82,45.94
-0.05,0.104,6.463,5.698,64.0,10.82,46.02
-0.061,0.124,6.459,5.694,64.0,10.82,46.18
0.281,0.145,6.454,5.691,64.0,10.82,46.29
0.03,0.29,6.45,5.69,64.0,10.82,46.44
0.109,0.331,6.44,5.685,64.0,10.82,46.85
0.269,0.124,6.44,5.685,64.0,10.82,46.86
0.443,0.104,6.437,5.683,64.0,10.82,47.03
0.06,0.104,6.432,5.68,64.0,10.82,47.21
-0.04,0.166,6.427,5.678,64.0,10.82,47.39
-0.031,0.104,6.424,5.675,64.0,10.82,47.59
-0.037,0.124,6.42,5.673,64.0,10.82,47.83
-0.048,0.124,6.415,5.67,64.0,10.82,47.97
-0.054,0.124,6.412,5.666,64.0,10.82,48.1
-0.056,0.124,6.407,5.664,64.0,10.82,48.31
-0.002,0.124,6.402,5.661,64.0,10.82,48.59
-0.058,0.124,6.397,5.659,64.0,10.82,48.87
-0.069,0.145,6.395,5.657,64.0,10.82,49.07
0.27,0.228,6.39,5.654,64.0,10.82,49.23
0.017,0.269,6.386,5.652,64.0,10.82,49.41
0.093,0.104,6.382,5.649,64.0,10.82,49.65
0.258,0.124,6.379,5.647,64.0,10.82,49.86
0.433,0.145,6.375,5.644,64.0,10.82,50.05
0.053,0.145,6.37,5.642,64.0,10.82,50.17
-0.041,0.104,6.367,5.639,67.0,10.82,50.27
-0.033,0.124,6.365,5.637,67.0,10.82,50.33
-0.036,0.104,6.362,5.634,67.0,10.82,50.28
-0.045,0.104,6.358,5.633,67.0,10.82,50.21
-0.05,0.145,6.355,5.631,67.0,10.82,50.18
-0.03,0.145,6.35,5.628,67.0,10.82,50.19
-0.007,0.104,6.349,5.626,67.0,10.82,50.22
-0.058,0.104,6.345,5.624,67.0,10.82,50.16
-0.077,0.435,6.343,5.621,67.0,10.82,50.08
0.262,0.104,6.339,5.619,67.0,10.82,50.06
-0.008,0.104,6.335,5.617,67.0,10.82,50.06
0.073,0.104,6.333,5.614,69.0,10.82,50.05
0.226,0.124,6.33,5.612,69.0,10.82,49.99
0.411,0.124,6.328,5.611,69.0,10.82,49.89
0.036,0.166,6.324,5.609,69.0,10.82,49.8
-0.073,0.104,6.323,5.606,69.0,10.82,49.62
-0.071,0.124,6.319,5.604,69.0,10.82,49.36
-0.079,0.124,6.317,5.603,69.0,10.82,49.19
-0.088,0.104,6.313,5.601,69.0,10.82,49.07
-0.097,0.124,6.31,5.598,69.0,10.82,48.98
-0.071,0.145,6.308,5.597,69.0,10.82,48.82
-0.076,0.373,6.305,5.596,69.0,10.82,48.6
-0.122,0.249,6.303,5.593,69.0,10.82,48.42
0.25,0.124,6.3,5.592,69.0,10.82,48.28
-0.117,0.124,6.298,5.589,69.0,10.82,48.14
-0.002,0.145,6.297,5.588,69.0,10.82,47.98
0.11,0.104,6.294,5.586,69.0,10.82,47.79
0.339,0.145,6.292,5.586,69.0,10.82,47.63
0.107,0.124,6.292,5.583,69.0,10.82,47.47
-0.122,0.145,6.289,5.582,69.0,10.82,47.17
-0.127,0.124,6.289,5.581,69.0,10.82,46.94
-0.13,0.104,6.287,5.581,69.0,10.82,46.81
-0.136,0.104,6.287,5.578,69.0,10.82,46.73
-0.136,0.083,6.287,5.578,69.0,10.82,46.66
-0.089,0.104,6.284,5.576,69.0,10.82,46.53
-0.129,0.352,6.284,5.576,69.0,10.82,46.43
-0.154,0.29,6.284,5.573,69.0,10.82,46.38
0.225,0.104,6.284,5.572,69.0,10.82,46.35
-0.104,0.145,6.282,5.571,69.0,10.82,46.32
-0.001,0.083,6.282,5.571,69.0,10.82,46.29
0.147,0.124,6.28,5.568,69.0,10.82,46.26
0.343,0.124,6.279,5.568,65.0,10.82,46.24
-0.014,0.104,6.279,5.566,65.0,10.82,46.23
-0.13,0.104,6.277,5.566,65.0,10.82,46.09
-0.123,0.124,6.277,5.564,65.0,10.82,45.96
-0.126,0.083,6.274,5.562,65.0,10.82,45.94
-0.135,0.145,6.273,5.561,65.0,10.82,45.96
-0.134,0.104,6.272,5.561,65.0,10.82,46.0
-0.079,0.124,6.27,5.559,65.0,10.82,46.02
-0.142,0.104,6.267,5.557,65.0,10.82,46.02
-0.157,0.394,6.266,5.556,65.0,10.82,46.06
0.196,0.269,6.265,5.554,65.0,10.82,46.1
-0.07,0.104,6.261,5.551,65.0,10.82,46.14
0.004,0.104,6.26,5.55,65.0,10.82,46.13
0.183,0.124,6.257,5.549,65.0,10.82,46.14
0.312,0.145,6.255,5.546,65.0,10.82,46.14
-0.068,0.104,6.252,5.545,63.0,10.82,46.15
-0.13,0.124,6.248,5.544,63.0,10.82,46.22
-0.119,0.083,6.247,5.542,63.0,10.82,46.2
-0.124,0.166,6.243,5.54,63.0,10.82,46.24
-0.129,0.124,6.241,5.539,63.0,10.82,46.37
-0.13,0.104,6.238,5.537,63.0,10.82,46.54
-0.11,0.104,6.235,5.535,63.0,10.82,46.77
-0.08,0.124,6.232,5.534,63.0,10.82,46.95
-0.138,0.104,6.23,5.531,63.0,10.82,47.14
0.006,0.414,6.227,5.53,63.0,10.82,47.39
0.093,0.269,6.223,5.529,63.0,10.82,47.64
-0.022,0.124,6.221,5.526,63.0,10.82,47.87
0.076,0.145,6.217,5.525,63.0,10.82,48.07
0.297,0.124,6.215,5.521,63.0,10.82,48.27
0.257,0.104,6.212,5.52,63.0,10.82,48.46
-0.083,0.104,6.21,5.519,60.0,10.81,48.66
-0.108,0.124,6.206,5.517,60.0,10.82,48.85
-0.103,0.124,6.203,5.515,60.0,10.82,48.94
-0.112,0.124,6.201,5.514,60.0,10.82,49.09
-0.119,0.145,6.197,5.511,60.0,10.82,49.34
-0.123,0.124,6.195,5.51,60.0,10.81,49.62
-0.113,0.083,6.191,5.509,60.0,10.82,49.85
-0.063,0.104,6.188,5.506,60.0,10.82,49.96
-0.113,0.414,6.186,5.504,60.0,10.82,50.04
-0.087,0.228,6.184,5.501,60.0,10.81,50.16
0.225,0.104,6.181,5.5,60.0,10.82,50.27
0.0,0.104,6.179,5.499,60.0,10.82,50.33
0.085,0.124,6.176,5.496,60.0,10.82,50.39
0.278,0.124,6.173,5.496,66.0,10.82,50.41
0.361,0.104,6.171,5.494,66.0,10.82,50.41
-0.023,0.104,6.168,5.491,66.0,10.82,50.4
-0.075,0.104,6.166,5.49,66.0,10.82,50.25
-0.068,0.124,6.16,5.485,66.0,10.82,50.1
-0.079,0.104,6.16,5.486,66.0,10.81,50.1
-0.087,0.166,6.158,5.484,66.0,10.81,50.11
-0.092,0.104,6.155,5.482,66.0,10.81,50.12
-0.095,0.145,6.154,5.481,66.0,10.81,50.03
-0.065,0.456,6.15,5.479,66.0,10.81,49.94
-0.063,0.166,6.149,5.478,66.0,10.81,49.89
-0.099,0.104,6.146,5.475,66.0,10.81,49.85
0.235,0.104,6.144,5.474,66.0,10.81,49.8
-0.049,0.124,6.14,5.472,66.0,10.81,49.72
0.028,0.104,6.139,5.47,66.0,10.81,49.6
0.137,0.124,6.136,5.469,68.0,10.81,49.5
0.367,0.124,6.134,5.467,68.0,10.81,49.32
0.214,0.083,6.131,5.465,68.0,10.81,49.07
-0.064,0.124,6.13,5.463,68.0,10.81,48.88
-0.072,0.104,6.126,5.46,68.0,10.81,48.77
-0.073,0.104,6.125,5.459,68.0,10.81,48.72
-0.081,0.104,6.121,5.457,68.0,10.81,48.61
-0.084,0.124,6.12,5.457,68.0,10.81,48.4
-0.08,0.414,6.118,5.454,68.0,10.81,48.21
-0.023,0.104,6.115,5.452,68.0,10.81,48.08
-0.077,0.124,6.114,5.45,68.0,10.81,47.96
-0.09,0.104,6.111,5.449,68.0,10.81,47.84
0.261,0.104,6.11,5.447,68.0,10.82,47.69
-0.002,0.062,6.108,5.445,68.0,10.82,47.54
0.077,0.083,6.106,5.444,67.0,10.81,47.41
0.245,0.124,6.105,5.442,67.0,10.81,47.19
-0.006,0.083,6.103,5.44,67.0,10.81,46.89
0.0,0.124,6.101,5.438,67.0,10.81,46.7
-0.073,0.124,6.1,5.437,67.0,10.82,46.61
-0.07,0.104,6.098,5.435,67.0,10.81,46.55
-0.076,0.104,6.097,5.434,67.0,10.81,46.47
-0.084,0.104,6.096,5.432,67.0,10.81,46.39
-0.082,0.373,6.093,5.43,67.0,10.81,46.33
-0.032,0.29,6.092,5.429,67.0,10.81,46.31
-0.088,0.104,6.091,5.427,67.0,10.81,46.31
-0.103,0.124,6.088,5.425,67.0,10.81,46.29
0.259,0.124,6.087,5.424,67.0,10.81,46.27
-0.018,0.104,6.086,5.423,67.0,10.81,46.25
0.061,0.124,6.083,5.422,63.0,10.81,46.23
0.228,0.104,6.082,5.419,63.0,10.81,46.22
0.379,0.083,6.079,5.418,63.0,10.81,46.1
0.002,0.104,6.078,5.417,63.0,10.81,45.98
-0.081,0.124,6.077,5.414,63.0,10.82,45.96
-0.072,0.083,6.073,5.413,63.0,10.81,45.98
-0.075,0.124,6.072,5.412,63.0,10.81,46.02
-0.08,0.145,6.071,5.41,63.0,10.81,46.03
-0.08,0.083,6.068,5.409,63.0,10.81,46.04
-0.043,0.373,6.067,5.407,63.0,10.82,46.07
-0.051,0.352,6.064,5.405,63.0,10.81,46.12
-0.094,0.083,6.063,5.404,63.0,10.81,46.15
0.315,0.104,6.061,5.402,63.0,10.81,46.15
-0.093,0.083,6.058,5.402,63.0,10.81,46.16
0.036,0.104,6.056,5.399,63.0,10.81,46.16
0.156,0.124,6.054,5.397,62.0,10.81,46.14
0.392,0.124,6.051,5.397,62.0,10.81,46.19
0.15,0.104,6.049,5.395,62.0,10.81,46.24
-0.074,0.124,6.047,5.394,62.0,10.81,46.37
-0.074,0.166,6.046,5.392,62.0,10.81,46.59
-0.075,0.124,6.043,5.391,62.0,10.81,46.85
-0.086,0.124,6.041,5.39,62.0,10.81,47.11
-0.09,0.104,6.038,5.387,62.0,10.81,47.28
-0.091,0.104,6.036,5.386,62.0,10.81,47.47
-0.059,0.352,6.034,5.385,62.0,10.81,47.67
-0.058,0.29,6.032,5.382,62.0,10.81,47.92
-0.104,0.124,6.029,5.382,62.0,10.81,48.19
0.242,0.104,6.028,5.38,62.0,10.81,48.4
-0.064,0.124,6.026,5.378,62.0,10.81,48.63
0.016,0.124,6.023,5.377,62.0,10.81,48.83
0.124,0.083,6.021,5.375,62.0,10.82,49.02
0.361,0.124,6.018,5.373,62.0,10.81,49.22
0.2,0.104,6.017,5.372,62.0,10.81,49.29
-0.081,0.124,6.014,5.37,62.0,10.81,49.4
-0.09,0.124,6.012,5.37,62.0,10.81,49.57
-0.089,0.124,6.01,5.367,62.0,10.81,49.76
-0.097,0.124,6.007,5.366,62.0,10.81,49.94
-0.103,0.124,6.005,5.365,62.0,10.81,49.98
-0.102,0.331,6.002,5.362,62.0,10.81,50.0
-0.096,0.331,6.001,5.361,62.0,10.81,50.06
-0.054,0.104,5.995,5.358,62.0,10.82,50.16
-0.132,0.124,5.996,5.358,62.0,10.82,50.17
-0.144,0.104,5.994,5.357,62.0,10.81,50.2
0.195,0.104,5.991,5.355,62.0,10.81,50.18
-0.041,0.124,5.989,5.353,65.0,10.81,50.16
0.038,0.104,5.986,5.352,65.0,10.81,50.14
0.223,0.104,5.985,5.35,65.0,10.82,49.95
0.357,0.083,5.984,5.348,65.0,10.82,49.78
-0.029,0.104,5.981,5.347,65.0,10.81,49.7
-0.103,0.083,5.979,5.347,65.0,10.81,49.68
-0.096,0.145,5.976,5.345,65.0,10.81,49.67
-0.105,0.104,5.975,5.342,65.0,10.81,49.58
-0.112,0.435,5.972,5.341,65.0,10.81,49.43
-0.115,0.228,5.971,5.34,65.0,10.81,49.32
-0.116,0.145,5.969,5.338,65.0,10.81,49.25
-0.079,0.104,5.966,5.337,65.0,10.81,49.16
-0.094,0.124,5.965,5.335,65.0,10.81,49.03
-0.131,0.104,5.962,5.333,65.0,10.81,48.85
0.254,0.083,5.96,5.332,67.0,10.81,48.68
-0.135,0.145,5.957,5.33,67.0,10.81,48.48
-0.011,0.104,5.956,5.33,67.0,10.82,48.15
0.104,0.124,5.954,5.327,67.0,10.82,47.87
0.337,0.104,5.951,5.327,67.0,10.81,47.71
0.105,0.124,5.95,5.325,67.0,10.81,47.58
-0.124,0.083,5.947,5.322,67.0,10.81,47.48
-0.128,0.124,5.945,5.322,67.0,10.82,47.31
-0.127,0.311,5.944,5.32,67.0,10.82,47.15
-0.138,0.352,5.941,5.318,67.0,10.81,47.02
-0.141,0.104,5.939,5.317,67.0,10.81,46.9
-0.117,0.124,5.936,5.317,67.0,10.81,46.79
-0.116,0.104,5.934,5.315,67.0,10.82,46.69
-0.143,0.145,5.931,5.313,67.0,10.82,46.6
-0.137,0.104,5.929,5.312,64.0,10.82,46.52
0.205,0.124,5.927,5.31,64.0,10.81,46.46
-0.05,0.124,5.925,5.308,64.0,10.81,46.32
0.028,0.083,5.924,5.307,64.0,10.81,46.16
0.209,0.104,5.922,5.305,64.0,10.81,46.11
0.319,0.145,5.92,5.305,64.0,10.82,46.12
-0.061,0.083,5.918,5.303,64.0,10.82,46.16
-0.121,0.104,5.917,5.303,64.0,10.81,46.17
-0.116,0.145,5.914,5.3,64.0,10.82,46.16
-0.124,0.435,5.912,5.299,64.0,10.81,46.2
-0.131,0.145,5.91,5.298,64.0,10.81,46.25
-0.132,0.104,5.908,5.296,64.0,10.81,46.27
-0.083,0.145,5.907,5.295,64.0,10.81,46.27
-0.139,0.145,5.904,5.293,64.0,10.81,46.27
-0.161,0.145,5.903,5.291,64.0,10.81,46.28
0.201,0.124,5.9,5.29,65.0,10.82,46.31
-0.085,0.104,5.899,5.29,65.0,10.81,46.41
-0.004,0.124,5.895,5.286,65.0,10.81,46.58
0.151,0.104,5.894,5.286,65.0,10.81,46.59
0.325,0.124,5.893,5.285,65.0,10.81,46.78
-0.04,0.166,5.892,5.283,65.0,10.82,47.03
-0.14,0.124,5.889,5.283,65.0,10.82,47.24
-0.132,0.124,5.888,5.28,65.0,10.81,47.37
-0.139,0.331,5.887,5.28,65.0,10.81,47.55
-0.149,0.228,5.884,5.278,65.0,10.82,47.76
-0.152,0.124,5.882,5.276,65.0,10.82,47.97
-0.147,0.104,5.882,5.275,65.0,10.81,48.19
-0.091,0.124,5.879,5.274,65.0,10.82,48.41
-0.149,0.124,5.877,5.273,65.0,10.82,48.61
-0.162,0.104,5.875,5.27,64.0,10.82,48.8
0.191,0.124,5.873,5.27,64.0,10.82,48.99
-0.063,0.104,5.872,5.269,64.0,10.82,49.05
0.009,0.104,5.87,5.268,64.0,10.82,49.16
0.184,0.124,5.868,5.265,64.0,10.82,49.35
0.345,0.145,5.867,5.264,64.0,10.82,49.56
-0.036,0.145,5.864,5.263,64.0,10.82,49.72
-0.123,0.124,5.863,5.261,64.0,10.82,49.75
-0.117,0.373,5.86,5.26,64.0,10.82,49.75
-0.12,0.228,5.859,5.259,64.0,10.82,49.77
-0.123,0.124,5.857,5.258,64.0,10.82,49.8
-0.125,0.104,5.854,5.256,64.0,10.82,49.83
-0.113,0.104,5.853,5.255,64.0,10.82,49.81
-0.07,0.104,5.85,5.254,64.0,10.82,49.79
-0.138,0.104,5.849,5.251,67.0,10.82,49.76
-0.123,0.124,5.847,5.25,67.0,10.82,49.71
0.157,0.104,5.844,5.25,67.0,10.82,49.5
-0.06,0.104,5.842,5.248,67.0,10.82,49.34
0.025,0.104,5.84,5.246,67.0,10.82,49.26
0.254,0.145,5.838,5.245,67.0,10.81,49.2
0.241,0.104,5.837,5.245,67.0,10.82,49.15
-0.08,0.145,5.834,5.243,67.0,10.82,48.99
-0.119,0.414,5.832,5.241,67.0,10.82,48.81
-0.103,0.166,5.83,5.24,67.0,10.81,48.64
-0.097,0.104,5.827,5.239,67.0,10.82,48.48
-0.093,0.124,5.826,5.238,67.0,10.82,48.3
-0.092,0.104,5.825,5.236,67.0,10.82,48.1
-0.077,0.104,5.822,5.235,67.0,10.81,47.89
-0.034,0.104,5.82,5.233,67.0,10.81,47.7
-0.093,0.104,5.817,5.231,67.0,10.82,47.45
0.03,0.104,5.816,5.23,67.0,10.82,47.09
0.151,0.083,5.811,5.228,67.0,10.81,46.74
0.02,0.104,5.811,5.228,67.0,10.81,46.73
0.111,0.124,5.81,5.225,67.0,10.81,46.66
0.31,0.104,5.807,5.225,67.0,10.82,46.62
0.304,0.124,5.806,5.223,67.0,10.82,46.52
-0.055,0.166,5.803,5.221,67.0,10.81,46.48
-0.098,0.394,5.802,5.22,67.0,10.82,46.47
-0.099,0.104,5.8,5.22,67.0,10.82,46.48
-0.11,0.083,5.797,5.218,67.0,10.82,46.46
-0.118,0.083,5.796,5.216,67.0,10.82,46.43
-0.115,0.124,5.795,5.215,67.0,10.82,46.42
-0.057,0.104,5.792,5.214,67.0,10.82,46.41
-0.11,0.104,5.79,5.213,63.0,10.81,46.42
-0.135,0.104,5.788,5.211,63.0,10.81,46.33
0.22,0.124,5.786,5.209,63.0,10.81,46.18
-0.054,0.124,5.785,5.208,63.0,10.82,46.15
0.014,0.145,5.782,5.208,63.0,10.82,46.16
0.172,0.145,5.78,5.206,63.0,10.82,46.2
0.336,0.104,5.778,5.204,63.0,10.82,46.22
-0.026,0.145,5.777,5.203,63.0,10.82,46.21
-0.113,0.394,5.775,5.202,63.0,10.82,46.24
-0.108,0.207,5.772,5.198,63.0,10.82,46.46
-0.114,0.104,5.772,5.198,63.0,10.82,46.47
-0.118,0.145,5.77,5.198,63.0,10.82,46.67
-0.12,0.104,5.767,5.196,63.0,10.82,46.93
-0.059,0.124,5.766,5.196,63.0,10.82,47.2
-0.088,0.124,5.765,5.193,64.0,10.82,47.47
-0.117,0.104,5.763,5.193,64.0,10.82,47.71
0.261,0.104,5.76,5.191,64.0,10.82,47.8
-0.079,0.104,5.76,5.189,64.0,10.82,47.94
0.038,0.145,5.755,5.187,64.0,10.82,48.44
0.175,0.145,5.756,5.186,64.0,10.82,48.48
0.162,0.124,5.755,5.186,64.0,10.82,48.72
-0.062,0.166,5.752,5.183,64.0,10.82,48.86
-0.084,0.394,5.75,5.183,64.0,10.82,49.0
-0.071,0.269,5.747,5.181,64.0,10.82,49.2
-0.072,0.124,5.746,5.181,64.0,10.82,49.43
-0.084,0.124,5.745,5.178,64.0,10.82,49.64
-0.085,0.124,5.743,5.177,64.0,10.82,49.84
-0.086,0.083,5.74,5.176,64.0,10.82,50.0
-0.063,0.124,5.739,5.174,65.0,10.82,50.16
-0.076,0.124,5.736,5.173,65.0,10.82,50.3
-0.115,0.104,5.735,5.172,65.0,10.82,50.3
0.283,0.124,5.733,5.169,65.0,10.82,50.29
-0.107,0.083,5.73,5.168,65.0,10.82,50.32
0.031,0.124,5.728,5.168,65.0,10.82,50.37
0.162,0.145,5.725,5.166,65.0,10.82,50.38
0.407,0.207,5.724,5.166,65.0,10.82,50.31
0.212,0.394,5.721,5.163,65.0,10.82,50.22
-0.037,0.124,5.719,5.162,65.0,10.82,50.18
-0.035,0.124,5.718,5.159,68.0,10.82,50.17
-0.039,0.145,5.713,5.158,68.0,10.82,50.06
-0.048,0.124,5.713,5.158,68.0,10.82,50.05
-0.056,0.124,5.71,5.156,68.0,10.82,49.93
-0.024,0.124,5.708,5.154,68.0,10.82,49.79
-0.015,0.083,5.706,5.153,68.0,10.82,49.6
-0.043,0.124,5.705,5.153,68.0,10.82,49.33
-0.087,0.145,5.703,5.151,68.0,10.82,49.14
0.305,0.145,5.7,5.149,68.0,10.82,49.01
-0.09,0.104,5.698,5.148,68.0,10.82,48.91
0.034,0.124,5.696,5.146,68.0,10.82,48.76
0.146,0.104,5.695,5.146,68.0,10.82,48.53
0.371,0.477,5.693,5.144,68.0,10.82,48.33
0.08,0.124,5.69,5.143,68.0,10.82,48.17
-0.097,0.166,5.689,5.141,68.0,10.82,48.01
-0.092,0.124,5.688,5.141,68.0,10.82,47.85
-0.093,0.083,5.685,5.138,68.0,10.82,47.66
-0.102,0.145,5.683,5.138,93.0,10.82,47.48
-0.099,0.124,5.681,5.137,93.0,10.82,47.3
-0.093,0.166,5.68,5.136,93.0,10.82,47.04
-0.045,0.104,5.679,5.133,93.0,10.82,46.73
-0.102,0.124,5.676,5.133,93.0,10.82,46.56
-0.119,0.124,5.675,5.132,93.0,10.82,46.48
0.231,0.145,5.674,5.131,93.0,10.82,46.45
-0.027,0.145,5.673,5.129,93.0,10.82,46.41
0.05,0.104,5.67,5.127,93.0,10.82,46.34
0.216,0.29,5.67,5.126,93.0,10.81,46.33
0.366,0.373,5.669,5.126,93.0,10.82,46.36
-0.007,0.145,5.668,5.125,93.0,10.82,46.38
-0.091,0.104,5.665,5.124,93.0,10.82,46.38
-0.086,0.166,5.664,5.122,93.0,10.82,46.38
-0.096,0.104,5.663,5.121,93.0,10.82,46.36
-0.1,0.083,5.66,5.119,93.0,10.82,46.35
-0.09,0.104,5.66,5.119,93.0,10.82,46.36
-0.039,0.124,5.658,5.117,93.0,10.82,46.25
-0.09,0.104,5.658,5.116,93.0,10.82,46.12
0.0,0.124,5.656,5.115,93.0,10.82,46.09
0.244,0.083,5.654,5.114,93.0,10.82,46.11
-0.011,0.104,5.653,5.114,93.0,10.82,46.16
0.069,0.124,5.651,5.111,93.0,10.81,46.17
0.242,0.124,5.649,5.111,93.0,10.81,46.16
0.351,0.145,5.648,5.109,93.0,10.81,46.2
-0.022,0.414,5.647,5.109,93.0,10.82,46.24
-0.089,0.186,5.646,5.106,93.0,10.81,46.27
-0.083,0.124,5.642,5.104,93.0,10.81,46.28
-0.093,0.124,5.642,5.104,93.0,10.82,46.28
-0.099,0.104,5.641,5.104,93.0,10.81,46.34
-0.1,0.104,5.638,5.101,93.0,10.81,46.48
-0.054,0.124,5.637,5.101,93.0,10.81,46.7
-0.09,0.145,5.636,5.1,93.0,10.81,46.9
-0.123,0.083,5.633,5.099,93.0,10.81,46.99
0.266,0.145,5.632,5.097,93.0,10.81,47.19
-0.1,0.124,5.631,5.096,93.0,10.81,47.48
0.012,0.104,5.628,5.094,93.0,10.81,47.78
0.14,0.145,5.627,5.094,93.0,10.81,48.02
0.361,0.124,5.626,5.091,93.0,10.81,48.18
0.06,0.249,5.623,5.091,93.0,10.81,48.36
-0.125,0.331,5.622,5.089,93.0,10.81,48.59
-0.124,0.104,5.621,5.089,93.0,10.81,48.82
-0.127,0.124,5.618,5.086,93.0,10.81,49.01
-0.137,0.124,5.617,5.086,93.0,10.81,49.2
-0.141,0.104,5.616,5.084,93.0,10.81,49.38
-0.141,0.104,5.613,5.084,63.0,10.81,49.58
-0.119,0.124,5.611,5.081,63.0,10.81,49.79
-0.1,0.124,5.609,5.081,63.0,10.81,49.87
-0.151,0.145,5.608,5.079,63.0,10.81,49.95
0.055,0.104,5.606,5.077,63.0,10.81,50.1
0.015,0.145,5.603,5.077,63.0,10.81,50.24
-0.032,0.104,5.602,5.076,63.0,10.81,50.37
0.067,0.104,5.601,5.074,63.0,10.81,50.39
0.284,0.414,5.598,5.072,63.0,10.81,50.34
0.24,0.186,5.596,5.071,63.0,10.81,50.32
-0.098,0.124,5.596,5.07,63.0,10.81,50.34
-0.117,0.124,5.593,5.069,63.0,10.81,50.36
-0.113,0.124,5.591,5.069,63.0,10.81,50.35
-0.12,0.104,5.589,5.066,63.0,10.81,50.3
-0.123,0.124,5.588,5.065,68.0,10.81,50.23
-0.122,0.124,5.586,5.064,68.0,10.81,50.12
-0.121,0.166,5.584,5.064,68.0,10.82,49.88
-0.109,0.104,5.583,5.061,68.0,10.81,49.7
-0.122,0.104,5.581,5.06,68.0,10.81,49.59
-0.127,0.124,5.578,5.059,68.0,10.81,49.5
0.259,0.124,5.577,5.057,68.0,10.81,49.41
-0.129,0.104,5.576,5.056,68.0,10.81,49.21
-0.001,0.456,5.573,5.055,68.0,10.81,49.0
0.115,0.166,5.571,5.054,68.0,10.81,48.82
0.351,0.104,5.569,5.052,68.0,10.81,48.65
0.158,0.104,5.568,5.051,68.0,10.81,48.46
-0.104,0.083,5.566,5.05,68.0,10.81,48.25
-0.113,0.104,5.565,5.049,68.0,10.81,48.03
-0.116,0.083,5.564,5.046,67.0,10.81,47.83
-0.128,0.124,5.561,5.046,67.0,10.81,47.63
-0.132,0.124,5.559,5.044,67.0,10.81,47.31
-0.131,0.104,5.557,5.044,67.0,10.81,47.07
-0.111,0.124,5.556,5.042,67.0,10.81,46.94
-0.087,0.145,5.554,5.041,67.0,10.81,46.85
-0.143,0.124,5.551,5.04,67.0,10.81,46.79
0.086,0.104,5.55,5.039,67.0,10.81,46.67
-0.022,0.124,5.549,5.038,67.0,10.81,46.58
-0.041,0.373,5.546,5.037,67.0,10.81,46.54
0.055,0.29,5.545,5.034,67.0,10.81,46.51
0.271,0.083,5.544,5.034,67.0,10.81,46.48
0.206,0.124,5.541,5.034,67.0,10.81,46.44
-0.117,0.124,5.54,5.032,67.0,10.81,46.42
-0.141,0.145,5.539,5.03,67.0,10.81,46.41
-0.142,0.104,5.536,5.029,60.0,10.81,46.38
-0.152,0.104,5.535,5.028,60.0,10.81,46.38
-0.156,0.104,5.532,5.027,60.0,10.81,46.24
-0.139,0.083,5.531,5.024,60.0,10.81,46.12
-0.109,0.104,5.53,5.024,60.0,10.81,46.1
-0.166,0.104,5.529,5.024,60.0,10.81,46.13
0.013,0.104,5.526,5.022,60.0,10.81,46.16
0.022,0.145,5.525,5.019,60.0,10.81,46.16
-0.058,0.104,5.522,5.019,60.0,10.81,46.16
0.037,0.145,5.521,5.018,60.0,10.81,46.21
0.252,0.456,5.52,5.017,60.0,10.81,46.26
0.206,0.145,5.519,5.015,60.0,10.81,46.27
-0.121,0.124,5.516,5.014,60.0,10.81,46.27
-0.143,0.124,5.514,5.012,60.0,10.81,46.35
-0.14,0.104,5.512,5.012,60.0,10.81,46.55
-0.151,0.124,5.511,5.01,60.0,10.81,46.77
-0.156,0.124,5.509,5.009,60.0,10.81,46.99
-0.15,0.145,5.507,5.008,60.0,10.81,47.09
-0.093,0.104,5.506,5.007,60.0,10.81,47.08
-0.151,0.124,5.504,5.005,60.0,10.81,47.22
-0.169,0.104,5.502,5.004,60.0,10.81,47.45
0.193,0.124,5.501,5.003,60.0,10.81,47.7
-0.073,0.083,5.499,5.002,60.0,10.81,47.88
0.006,0.145,5.497,5.0,60.0,10.81,48.04
0.173,0.145,5.496,4.999,60.0,10.81,48.24
0.341,0.394,5.494,4.998,60.0,10.81,48.5
-0.035,0.145,5.492,4.997,60.0,10.81,48.75
-0.134,0.124,5.491,4.997,60.0,10.81,48.97
-0.126,0.104,5.489,4.994,60.0,10.81,49.19
-0.134,0.124,5.487,4.993,60.0,10.81,49.41
-0.143,0.124,5.486,4.992,60.0,10.81,49.63
-0.144,0.124,5.484,4.992,62.0,10.81,49.86
-0.143,0.104,5.481,4.989,62.0,10.81,49.99
-0.125,0.145,5.481,4.988,62.0,10.81,50.06
-0.094,0.104,5.479,4.987,62.0,10.81,50.17
-0.152,0.166,5.478,4.985,62.0,10.81,50.32
-0.003,0.104,5.475,4.984,62.0,10.81,50.45
0.066,0.166,5.474,4.984,62.0,10.81,50.48
-0.039,0.249,5.472,4.982,62.0,10.81,50.43
0.057,0.311,5.47,4.982,62.0,10.81,50.39
0.267,0.104,5.469,4.98,62.0,10.81,50.39
0.271,0.083,5.467,4.979,62.0,10.81,50.39
-0.092,0.145,5.465,4.978,62.0,10.81,50.37
-0.125,0.124,5.464,4.977,62.0,10.81,50.32
-0.123,0.124,5.463,4.975,68.0,10.81,50.22
-0.135,0.124,5.462,4.974,68.0,10.81,50.13
-0.137,0.145,5.459,4.973,68.0,10.81,49.91
-0.136,0.124,5.458,4.972,68.0,10.81,49.69
-0.131,0.124,5.457,4.97,68.0,10.81,49.54
-0.105,0.104,5.454,4.969,68.0,10.81,49.46
-0.085,0.145,5.453,4.968,68.0,10.81,49.39
-0.135,0.124,5.452,4.967,68.0,10.81,49.24
0.118,0.331,5.449,4.967,68.0,10.81,49.06
-0.014,0.166,5.447,4.964,68.0,10.81,48.89
-0.017,0.124,5.447,4.964,68.0,10.81,48.77
0.083,0.104,5.444,4.962,68.0,10.81,48.61
0.3,0.104,5.443,4.962,68.0,10.81,48.41
0.244,0.104,5.442,4.959,68.0,10.81,48.19
-0.091,0.124,5.439,4.959,67.0,10.81,47.99
-0.115,0.145,5.437,4.957,67.0,10.81,47.8
-0.111,0.124,5.435,4.957,67.0,10.81,47.47
-0.119,0.124,5.434,4.954,67.0,10.81,47.19
-0.12,0.124,5.433,4.954,67.0,10.81,47.01
-0.12,0.124,5.43,4.953,67.0,10.81,46.89
-0.119,0.104,5.429,4.952,67.0,10.81,46.8
-0.069,0.083,5.427,4.951,67.0,10.81,46.68
-0.113,0.228,5.425,4.95,67.0,10.81,46.58
-0.137,0.331,5.424,4.95,67.0,10.81,46.53
0.214,0.104,5.423,4.947,67.0,10.81,46.5
-0.072,0.104,5.422,4.947,67.0,10.81,46.49
0.017,0.124,5.42,4.946,67.0,10.81,46.48
0.166,0.104,5.418,4.945,67.0,10.81,46.46
0.372,0.124,5.417,4.943,67.0,10.81,46.44
0.032,0.124,5.417,4.942,64.0,10.81,46.44
-0.101,0.083,5.414,4.941,64.0,10.81,46.35
-0.099,0.145,5.413,4.94,64.0,10.81,46.19
-0.104,0.124,5.412,4.938,64.0,10.81,46.15
-0.108,0.104,5.41,4.937,64.0,10.81,46.16
-0.107,0.104,5.409,4.937,64.0,10.81,46.21
-0.06,0.083,5.408,4.935,64.0,10.81,46.21
-0.095,0.104,5.407,4.935,64.0,10.81,46.2
-0.12,0.352,5.405,4.933,64.0,10.81,46.23
0.257,0.331,5.404,4.932,64.0,10.81,46.34
-0.083,0.124,5.402,4.932,64.0,10.81,46.57
0.025,0.104,5.402,4.93,64.0,10.81,46.82
0.163,0.104,5.402,4.93,64.0,10.81,47.07
0.38,0.124,5.399,4.928,64.0,10.81,47.3
0.07,0.104,5.398,4.927,63.0,10.81,47.51
-0.088,0.124,5.397,4.926,63.0,10.81,47.73
-0.083,0.104,5.395,4.925,63.0,10.81,47.82
-0.085,0.145,5.394,4.925,63.0,10.81,47.93
-0.093,0.104,5.392,4.922,63.0,10.81,48.15
-0.092,0.124,5.391,4.922,63.0,10.81,48.42
-0.066,0.124,5.39,4.921,63.0,10.79,48.7
-0.047,0.083,5.387,4.92,63.0,10.81,48.87
-0.101,0.228,5.387,4.918,63.0,10.81,49.05
0.199,0.373,5.385,4.917,63.0,10.81,49.27
-0.011,0.104,5.382,4.915,63.0,10.81,49.53
0.026,0.124,5.382,4.915,63.0,10.81,49.78
0.134,0.104,5.38,4.915,63.0,10.81,50.01
0.358,0.145,5.377,4.913,63.0,10.81,50.19
0.256,0.124,5.376,4.912,65.0,10.81,50.35
-0.052,0.124,5.375,4.912,65.0,10.81,50.49
-0.064,0.083,5.373,4.91,65.0,10.79,50.47
-0.059,0.145,5.372,4.91,65.0,10.81,50.4
-0.065,0.124,5.37,4.91,65.0,10.81,50.37
-0.071,0.104,5.368,4.907,65.0,10.81,50.39
-0.07,0.104,5.367,4.907,65.0,10.81,50.4
-0.027,0.145,5.365,4.907,65.0,10.81,50.33
-0.056,0.435,5.365,4.905,65.0,10.81,50.21
-0.096,0.166,5.362,4.905,65.0,10.81,50.13
0.296,0.083,5.361,4.902,65.0,10.81,50.08
-0.094,0.124,5.36,4.902,65.0,10.81,50.01
0.034,0.104,5.36,4.902,65.0,10.81,49.93
0.156,0.104,5.357,4.901,65.0,10.81,49.8
0.392,0.104,5.356,4.9,68.0,10.79,49.63
0.144,0.104,5.355,4.9,68.0,10.81,49.44
-0.086,0.124,5.353,4.9,68.0,10.81,49.13
-0.087,0.124,5.352,4.897,68.0,10.79,48.85
-0.09,0.145,5.35,4.897,68.0,10.81,48.65
-0.099,0.145,5.35,4.895,68.0,10.81,48.5
-0.105,0.104,5.347,4.895,68.0,10.81,48.36
-0.105,0.104,5.346,4.895,68.0,10.79,48.16
-0.085,0.166,5.345,4.893,68.0,10.79,47.97
-0.071,0.497,5.343,4.892,68.0,10.79,47.79
-0.128,0.145,5.342,4.891,68.0,10.79,47.63
0.119,0.124,5.34,4.89,68.0,10.79,47.48
-0.018,0.124,5.34,4.89,68.0,10.81,47.31
-0.024,0.124,5.337,4.888,68.0,10.79,47.15
0.074,0.083,5.336,4.887,68.0,10.81,46.99
0.291,0.124,5.335,4.887,64.0,10.81,46.86
0.229,0.083,5.333,4.886,64.0,10.81,46.69
-0.103,0.104,5.332,4.885,64.0,10.81,46.45
-0.126,0.104,5.331,4.883,64.0,10.81,46.34
-0.125,0.083,5.33,4.882,64.0,10.81,46.31
-0.133,0.083,5.328,4.882,64.0,10.81,46.32
-0.136,0.186,5.327,4.881,64.0,10.81,46.33
-0.137,0.124,5.326,4.88,64.0,10.81,46.3
-0.092,0.228,5.325,4.88,64.0,10.81,46.31
-0.128,0.207,5.323,4.877,64.0,10.81,46.35
-0.154,0.104,5.322,4.877,64.0,10.79,46.38
0.218,0.124,5.321,4.877,64.0,10.79,46.38
-0.13,0.104,5.32,4.876,64.0,10.81,46.39
-0.019,0.104,5.317,4.875,64.0,10.79,46.38
0.108,0.104,5.317,4.875,64.0,10.79,46.38
0.327,0.166,5.315,4.872,49.0,10.79,46.39
0.034,0.104,5.315,4.872,49.0,10.79,46.29
-0.143,0.104,5.312,4.87,49.0,10.79,46.15
-0.142,0.104,5.311,4.87,49.0,10.79,46.13
-0.144,0.104,5.31,4.868,49.0,10.79,46.15
-0.152,0.083,5.307,4.867,49.0,10.79,46.2
-0.152,0.124,5.306,4.867,49.0,10.79,46.21
-0.099,0.104,5.305,4.865,49.0,10.79,46.21
-0.133,0.311,5.304,4.865,49.0,10.79,46.26
-0.161,0.456,5.303,4.862,49.0,10.79,46.31
0.232,0.145,5.3,4.862,49.0,10.79,46.33
-0.136,0.124,5.299,4.86,49.0,10.79,46.33
-0.014,0.104,5.298,4.86,49.0,10.79,46.34
0.117,0.166,5.296,4.859,49.0,10.79,46.33
0.342,0.104,5.295,4.858,49.0,10.79,46.32
0.062,0.145,5.293,4.856,49.0,10.79,46.32
-0.115,0.124,5.29,4.855,49.0,10.79,46.25
-0.107,0.104,5.29,4.854,49.0,10.79,46.2
-0.106,0.124,5.288,4.853,49.0,10.79,46.4
-0.112,0.083,5.286,4.853,49.0,10.79,46.71
-0.11,0.104,5.285,4.85,49.0,10.79,47.07
-0.099,0.124,5.283,4.85,49.0,10.79,47.36
-0.047,0.124,5.281,4.848,49.0,10.79,47.59
-0.072,0.269,5.28,4.848,49.0,10.79,47.81
-0.098,0.352,5.278,4.846,49.0,10.79,48.08
0.305,0.104,5.276,4.845,49.0,10.79,48.32
-0.081,0.145,5.275,4.843,49.0,10.79,48.54
0.05,0.145,5.273,4.843,49.0,10.79,48.77
0.178,0.145,5.271,4.841,49.0,10.79,48.98
0.418,0.104,5.27,4.84,62.0,10.79,49.21
0.176,0.186,5.268,4.839,62.0,10.79,49.45
-0.045,0.145,5.266,4.838,62.0,10.79,49.56
-0.045,0.124,5.265,4.836,62.0,10.79,49.69
-0.043,0.104,5.263,4.835,62.0,10.79,49.88
-0.049,0.104,5.26,4.834,62.0,10.79,50.14
-0.046,0.124,5.259,4.833,62.0,10.79,50.38
-0.042,0.311,5.258,4.833,62.0,10.79,50.46
-0.01,0.435,5.256,4.83,62.0,10.79,50.48
0.0,0.331,5.255,4.83,62.0,10.79,50.5
-0.048,0.124,5.253,4.828,72.0,10.79,50.55
-0.05,0.104,5.251,4.828,72.0,10.79,50.57
-0.039,0.104,5.248,4.825,72.0,10.79,50.55
0.08,0.104,5.248,4.825,72.0,10.79,50.54
0.184,0.145,5.246,4.823,72.0,10.79,50.5
0.409,0.104,5.245,4.823,72.0,10.79,50.45
0.329,0.124,5.243,4.823,72.0,10.79,50.24
-0.001,0.083,5.241,4.82,72.0,10.79,50.04
-0.022,0.124,5.24,4.82,72.0,10.79,49.94
-0.022,0.124,5.238,4.818,72.0,10.79,49.91
-0.034,0.124,5.238,4.818,72.0,10.79,49.88
-0.037,0.104,5.235,4.815,72.0,10.79,49.74
-0.039,0.373,5.234,4.815,72.0,10.79,49.54
-0.038,0.29,5.233,4.814,72.0,10.79,49.39
0.013,0.145,5.23,4.813,72.0,10.79,49.28
-0.042,0.104,5.229,4.813,72.0,10.79,49.11
-0.06,0.083,5.228,4.81,72.0,10.79,48.91
0.277,0.104,5.226,4.809,72.0,10.79,48.7
0.021,0.124,5.225,4.808,94.0,10.79,48.51
0.1,0.083,5.223,4.808,94.0,10.79,48.29
0.253,0.145,5.22,4.805,94.0,10.79,47.95
0.458,0.104,5.22,4.805,94.0,10.79,47.65
0.102,0.186,5.218,4.803,94.0,10.79,47.46
-0.037,0.124,5.215,4.803,94.0,10.79,47.33
-0.037,0.083,5.215,4.803,94.0,10.79,47.22
-0.047,0.104,5.213,4.8,94.0,10.79,47.05
-0.06,0.166,5.211,4.8,94.0,10.79,46.89
-0.066,0.497,5.211,4.799,94.0,10.79,46.79
-0.07,0.186,5.208,4.796,94.0,10.79,46.71
-0.045,0.124,5.207,4.795,94.0,10.79,46.66
-0.047,0.083,5.206,4.795,94.0,10.79,46.59
-0.093,0.145,5.203,4.793,94.0,10.79,46.54
0.269,0.104,5.203,4.793,94.0,10.79,46.49
-0.095,0.124,5.201,4.793,94.0,10.79,46.46
0.014,0.124,5.198,4.79,94.0,10.79,46.42
0.12,0.083,5.198,4.79,94.0,10.79,46.25
0.347,0.104,5.197,4.789,94.0,10.79,46.13
0.197,0.145,5.194,4.788,94.0,10.79,46.13
-0.082,0.104,5.193,4.785,94.0,10.79,46.15
-0.094,0.145,5.191,4.785,94.0,10.79,46.19
-0.101,0.104,5.191,4.784,94.0,10.79,46.19
-0.11,0.104,5.188,4.783,94.0,10.79,46.19
-0.119,0.373,5.186,4.781,94.0,10.79,46.24
-0.11,0.249,5.186,4.78,94.0,10.79,46.29
-0.064,0.124,5.183,4.779,94.0,10.79,46.31
-0.095,0.104,5.182,4.778,94.0,10.79,46.35
0.24,0.145,5.181,4.778,94.0,10.79,46.49
0.198,0.145,5.179,4.776,94.0,10.79,46.62
-0.037,0.124,5.177,4.775,94.0,10.79,46.81
0.036,0.145,5.176,4.774,94.0,10.79,47.04
0.213,0.083,5.174,4.773,94.0,10.79,47.11
0.317,0.145,5.173,4.773,94.0,10.79,47.22
-0.063,0.145,5.172,4.771,94.0,10.79,47.43
-0.124,0.145,5.171,4.771,94.0,10.79,47.69
-0.12,0.124,5.168,4.769,94.0,10.79,47.94
-0.125,0.124,5.168,4.768,94.0,10.79,48.13
-0.132,0.124,5.166,4.768,94.0,10.79,48.32
-0.132,0.394,5.164,4.766,94.0,10.79,48.56
-0.081,0.228,5.163,4.766,94.0,10.79,48.83
-0.12,0.104,5.161,4.763,94.0,10.79,49.07
-0.141,0.145,5.161,4.763,94.0,10.79,49.28
0.232,0.124,5.158,4.762,94.0,10.79,49.5
-0.096,0.124,5.156,4.761,94.0,10.79,49.7
0.002,0.083,5.156,4.761,94.0,10.79,49.91
0.142,0.124,5.153,4.758,225.0,10.79,50.08
0.362,0.083,5.152,4.757,225.0,10.79,50.09
0.042,0.124,5.151,4.756,225.0,10.79,50.11
-0.118,0.124,5.148,4.756,225.0,10.79,50.18
-0.113,0.124,5.147,4.754,225.0,10.79,50.24
-0.117,0.124,5.146,4.753,225.0,10.79,50.26
-0.124,0.124,5.143,4.753,225.0,10.79,50.19
-0.129,0.414,5.143,4.751,225.0,10.79,50.11
-0.13,0.228,5.141,4.751,225.0,10.79,50.07
-0.101,0.083,5.139,4.748,225.0,10.79,50.07
-0.097,0.104,5.138,4.748,225.0,10.79,50.05
-0.143,0.104,5.136,4.747,225.0,10.79,49.98
0.196,0.104,5.134,4.746,225.0,10.79,49.88
-0.092,0.104,5.133,4.746,225.0,10.79,49.78
-0.018,0.124,5.132,4.743,225.0,10.79,49.62
0.087,0.124,5.131,4.743,225.0,10.79,49.36
0.321,0.124,5.128,4.743,225.0,10.79,49.13
0.214,0.104,5.127,4.741,225.0,10.79,48.97
-0.101,0.124,5.126,4.741,225.0,10.79,48.83
-0.114,0.083,5.124,4.738,225.0,10.79,48.66
-0.114,0.104,5.122,4.738,225.0,10.79,48.45
-0.123,0.477,5.121,4.737,225.0,10.79,48.25
-0.127,0.124,5.119,4.736,225.0,10.79,48.08
-0.126,0.124,5.117,4.736,225.0,10.79,47.91
-0.123,0.124,5.116,4.733,225.0,10.79,47.74
-0.067,0.104,5.114,4.733,225.0,10.79,47.54
-0.114,0.124,5.112,4.732,225.0,10.79,47.36
-0.131,0.083,5.111,4.731,225.0,10.79,47.18
0.218,0.104,5.109,4.731,225.0,10.79,46.95
-0.069,0.083,5.106,4.728,225.0,10.79,46.66
0.018,0.124,5.106,4.728,225.0,10.79,46.51
0.161,0.104,5.104,4.726,225.0,10.79,46.45
0.375,0.083,5.102,4.726,225.0,10.79,46.44
0.048,0.104,5.101,4.726,225.0,10.79,46.42
-0.112,0.104,5.099,4.723,225.0,10.79,46.37
-0.111,0.394,5.099,4.723,225.0,10.79,46.37
-0.121,0.166,5.097,4.722,225.0,10.79,46.4
-0.13,0.124,5.096,4.721,225.0,10.79,46.42
-0.134,0.083,5.096,4.719,225.0,10.79,46.41
-0.136,0.104,5.096,4.718,225.0,10.79,46.41
-0.119,0.083,5.096,4.718,225.0,10.79,46.41
-0.095,0.104,5.099,4.718,225.0,10.79,46.39
-0.153,0.104,5.1,4.717,225.0,10.79,46.36
0.101,0.145,5.101,4.716,225.0,10.79,46.22
-0.053,0.166,5.105,4.716,225.0,10.79,46.13
-0.052,0.104,5.107,4.714,225.0,10.79,46.13
0.033,0.124,5.11,4.713,225.0,10.79,46.16
0.247,0.124,5.115,4.713,225.0,10.79,46.19
0.199,0.145,5.12,4.713,225.0,10.79,46.19
-0.122,0.29,5.122,4.713,225.0,10.79,46.2
-0.139,0.394,5.127,4.711,225.0,10.79,46.27
-0.141,0.124,5.132,4.711,225.0,10.79,46.44
-0.149,0.104,5.134,4.711,225.0,10.79,46.65
-0.148,0.124,5.139,4.711,225.0,10.79,46.82
-0.134,0.124,5.144,4.708,225.0,10.79,46.92
-0.084,0.104,5.147,4.708,63.0,10.79,46.98
-0.149,0.124,5.151,4.708,63.0,10.79,47.06
-0.064,0.124,5.154,4.708,63.0,10.79,47.09
0.131,0.104,5.157,4.706,63.0,10.79,47.07
-0.04,0.104,5.159,4.706,63.0,10.79,47.15
0.05,0.145,5.162,4.706,63.0,10.79,47.36
0.247,0.104,5.164,4.706,63.0,10.79,47.62
0.293,0.124,5.166,4.704,63.0,10.79,47.8
-0.066,0.166,5.168,4.703,63.0,10.79,47.96
-0.099,0.414,5.168,4.703,63.0,10.79,48.14
-0.089,0.124,5.168,4.703,63.0,10.79,48.36
-0.098,0.104,5.169,4.701,63.0,10.79,48.59
-0.097,0.124,5.171,4.701,63.0,10.79,48.8
-0.091,0.124,5.171,4.701,63.0,10.79,48.98
-0.028,0.104,5.171,4.699,63.0,10.79,49.13
-0.09,0.104,5.168,4.698,66.0,10.79,49.31
-0.1,0.124,5.168,4.698,66.0,10.79,49.41
0.248,0.104,5.168,4.697,66.0,10.79,49.5
0.0,0.104,5.166,4.696,66.0,10.79,49.65
0.077,0.104,5.166,4.696,66.0,10.79,49.85
0.252,0.124,5.163,4.693,66.0,10.79,50.0
0.413,0.062,5.161,4.693,66.0,10.79,50.03
0.03,0.477,5.159,4.693,66.0,10.78,50.01
-0.056,0.207,5.157,4.691,66.0,10.78,50.01
-0.052,0.104,5.154,4.691,66.0,10.78,50.01
-0.059,0.124,5.152,4.691,66.0,10.78,50.02
-0.066,0.083,5.151,4.688,66.0,10.78,50.02
-0.065,0.104,5.148,4.687,66.0,10.78,49.95
-0.053,0.104,5.146,4.686,68.0,10.78,49.88
-0.009,0.145,5.143,4.686,68.0,10.78,49.75
-0.081,0.104,5.141,4.686,68.0,10.78,49.56
0.022,0.104,5.137,4.685,68.0,10.78,49.42
0.17,0.124,5.134,4.682,68.0,10.78,49.36
0.019,0.083,5.132,4.681,68.0,10.78,49.35
0.113,0.124,5.129,4.681,68.0,10.78,49.31
0.316,0.186,5.127,4.681,68.0,10.78,49.16
0.36,0.477,5.125,4.679,68.0,10.78,48.99
-0.016,0.145,5.122,4.679,68.0,10.78,48.86
-0.058,0.104,5.119,4.677,68.0,10.78,48.7
-0.059,0.145,5.116,4.676,68.0,10.78,48.53
-0.074,0.083,5.114,4.675,68.0,10.78,48.31
-0.084,0.104,5.111,4.674,68.0,10.78,48.13
-0.089,0.104,5.109,4.674,68.0,10.78,47.95
-0.076,0.083,5.106,4.671,68.0,10.78,47.68
-0.042,0.124,5.104,4.671,68.0,10.78,47.33
-0.105,0.124,5.101,4.67,68.0,10.78,47.08
-0.015,0.104,5.1,4.669,68.0,10.78,46.93
0.145,0.083,5.096,4.669,68.0,10.78,46.83
-0.01,0.104,5.095,4.667,68.0,10.78,46.73
0.077,0.104,5.092,4.666,68.0,10.78,46.61
0.274,0.269,5.09,4.666,68.0,10.78,46.54
0.325,0.352,5.089,4.664,68.0,10.78,46.53
-0.055,0.083,5.086,4.664,68.0,10.78,46.5
-0.097,0.145,5.084,4.661,68.0,10.78,46.48
-0.096,0.104,5.081,4.661,68.0,10.78,46.46
-0.109,0.083,5.08,4.661,68.0,10.78,46.44
-0.115,0.124,5.079,4.659,68.0,10.78,46.42
-0.114,0.124,5.076,4.659,62.0,10.78,46.41
-0.074,0.124,5.074,4.656,62.0,10.78,46.31
-0.099,0.104,5.072,4.656,62.0,10.78,46.15
-0.134,0.124,5.07,4.656,62.0,10.78,46.11
0.241,0.083,5.069,4.654,62.0,10.78,46.13
-0.12,0.145,5.066,4.654,62.0,10.78,46.33
-0.001,0.104,5.065,4.654,62.0,10.77,46.59
0.123,0.104,5.064,4.651,62.0,10.78,46.85
0.355,0.311,5.061,4.651,62.0,10.78,47.19
0.101,0.311,5.06,4.65,62.0,10.77,47.57
-0.108,0.124,5.059,4.649,62.0,10.77,47.9
-0.11,0.124,5.056,4.647,62.0,10.77,48.19
-0.119,0.145,5.054,4.646,62.0,10.77,48.49
-0.13,0.145,5.052,4.646,62.0,10.77,48.76
-0.136,0.145,5.051,4.645,62.0,10.77,49.02
-0.08,0.104,5.049,4.644,62.0,10.78,49.25
-0.131,0.104,5.046,4.642,62.0,10.77,49.35
-0.152,0.124,5.045,4.641,62.0,10.77,49.45
0.21,0.104,5.044,4.641,62.0,10.78,49.63
-0.086,0.083,5.041,4.64,62.0,10.78,49.85
0.005,0.104,5.039,4.639,62.0,10.77,50.07
0.151,0.104,5.037,4.639,62.0,10.77,50.19
0.347,0.29,5.035,4.636,62.0,10.78,50.26
0.005,0.394,5.034,4.636,62.0,10.77,50.33
-0.12,0.124,5.032,4.635,62.0,10.78,50.41
-0.116,0.083,5.03,4.634,62.0,10.78,50.46
-0.121,0.124,5.028,4.634,62.0,10.78,50.48
-0.131,0.145,5.027,4.631,62.0,10.77,50.47
-0.131,0.124,5.024,4.631,65.0,10.77,50.45
-0.077,0.124,5.023,4.631,65.0,10.77,50.43
-0.11,0.104,5.022,4.629,65.0,10.77,50.28
-0.14,0.124,5.019,4.629,65.0,10.77,50.1
0.248,0.124,5.017,4.626,65.0,10.77,50.02
-0.118,0.124,5.015,4.626,65.0,10.77,50.0
-0.001,0.083,5.014,4.625,65.0,10.77,50.0
0.134,0.104,5.012,4.624,65.0,10.77,49.91
0.367,0.311,5.01,4.622,65.0,10.77,49.78
0.085,0.29,5.009,4.621,65.0,10.77,49.68
-0.108,0.104,5.007,4.621,65.0,10.77,49.61
-0.105,0.104,5.005,4.62,65.0,10.77,49.53
-0.106,0.104,5.004,4.619,65.0,10.77,49.41
-0.11,0.104,5.002,4.619,65.0,10.77,49.24
-0.111,0.145,4.999,4.616,67.0,10.77,49.07
-0.106,0.104,4.999,4.616,67.0,10.77,48.92
-0.08,0.104,4.997,4.614,67.0,10.77,48.66
-0.061,0.083,4.995,4.614,67.0,10.77,48.37
-0.112,0.104,4.994,4.614,67.0,10.77,48.18
0.175,0.062,4.992,4.612,67.0,10.77,48.06
-0.016,0.083,4.992,4.611,67.0,10.77,47.99
0.01,0.104,4.99,4.61,67.0,10.77,47.84
0.116,0.124,4.989,4.609,67.0,10.77,47.67
0.343,0.311,4.989,4.609,67.0,10.77,47.55
0.276,0.373,4.989,4.607,67.0,10.77,47.44
-0.055,0.104,4.989,4.606,67.0,10.77,47.33
-0.072,0.145,4.989,4.606,67.0,10.77,47.2
-0.073,0.104,4.989,4.604,67.0,10.77,47.07
-0.089,0.124,4.992,4.604,67.0,10.77,46.95
-0.097,0.166,4.992,4.604,62.0,10.77,46.83
-0.099,0.083,4.993,4.604,62.0,10.77,46.73
-0.089,0.083,4.994,4.601,62.0,10.77,46.53
-0.038,0.104,4.994,4.601,62.0,10.77,46.35
-0.095,0.104,4.997,4.601,62.0,10.77,46.27
-0.097,0.124,4.997,4.599,62.0,10.77,46.27
0.236,0.104,4.997,4.599,62.0,10.77,46.29
-0.006,0.124,4.999,4.599,62.0,10.77,46.27
0.072,0.104,4.999,4.597,62.0,10.77,46.26
0.241,0.311,4.999,4.595,62.0,10.77,46.29
0.391,0.29,4.999,4.594,62.0,10.77,46.33
0.016,0.104,4.999,4.594,62.0,10.77,46.36
-0.071,0.104,5.002,4.594,62.0,10.77,46.35
-0.067,0.145,5.002,4.594,62.0,10.77,46.35
-0.075,0.104,5.002,4.592,62.0,10.77,46.36
-0.085,0.104,5.002,4.592,62.0,10.77,46.33
-0.089,0.104,5.0,4.59,62.0,10.77,46.34
-0.065,0.104,5.0,4.589,62.0,10.77,46.23
-0.054,0.145,4.999,4.589,62.0,10.77,46.11
-0.108,0.124,4.999,4.588,62.0,10.77,46.09
0.231,0.145,4.997,4.587,62.0,10.77,46.11
-0.062,0.104,4.997,4.587,62.0,10.77,46.16
0.007,0.083,4.997,4.587,62.0,10.77,46.18
0.112,0.124,4.994,4.584,62.0,10.77,46.19
0.338,0.145,4.994,4.584,62.0,10.77,46.22
0.22,0.435,4.992,4.583,62.0,10.77,46.27
-0.072,0.124,4.992,4.582,62.0,10.77,46.3
-0.082,0.145,4.989,4.582,62.0,10.77,46.29
-0.084,0.083,4.988,4.579,62.0,10.77,46.32
-0.096,0.104,4.985,4.579,62.0,10.77,46.48
-0.099,0.145,4.984,4.579,62.0,10.77,46.66
-0.09,0.124,4.983,4.578,60.0,10.77,46.84
-0.038,0.124,4.982,4.577,60.0,10.77,46.96
-0.102,0.124,4.979,4.575,60.0,10.77,47.02
-0.085,0.104,4.978,4.574,60.0,10.77,47.22
0.228,0.145,4.975,4.574,60.0,10.77,47.47
-0.012,0.166,4.973,4.573,60.0,10.77,47.76
0.069,0.124,4.969,4.572,60.0,10.77,48.16
0.251,0.124,4.969,4.572,60.0,10.77,48.18
0.361,0.29,4.967,4.569,60.0,10.77,48.4
-0.021,0.311,4.965,4.569,60.0,10.77,48.65
-0.083,0.124,4.963,4.569,60.0,10.77,48.9
-0.075,0.104,4.962,4.567,60.0,10.77,49.12
-0.082,0.104,4.959,4.567,60.0,10.77,49.31
-0.088,0.124,4.957,4.565,60.0,10.77,49.5
-0.086,0.124,4.955,4.564,63.0,10.77,49.69
-0.082,0.104,4.954,4.564,63.0,10.77,49.84
-0.035,0.124,4.952,4.564,63.0,10.77,49.85
-0.065,0.104,4.95,4.563,63.0,10.77,49.85
-0.094,0.124,4.948,4.56,63.0,10.77,49.91
0.289,0.145,4.946,4.559,63.0,10.77,49.94
-0.067,0.124,4.945,4.559,63.0,10.77,49.96
0.05,0.124,4.942,4.557,63.0,10.77,49.9
0.18,0.414,4.94,4.557,63.0,10.77,49.83
0.414,0.228,4.938,4.557,63.0,10.77,49.82
0.145,0.124,4.937,4.554,63.0,10.77,49.82
-0.07,0.104,4.935,4.554,63.0,10.77,49.79
-0.069,0.124,4.932,4.553,63.0,10.77,49.75
-0.074,0.124,4.931,4.552,63.0,10.77,49.68
-0.086,0.104,4.93,4.552,68.0,10.77,49.62
-0.09,0.104,4.927,4.549,68.0,10.77,49.48
-0.091,0.083,4.926,4.549,68.0,10.77,49.27
-0.079,0.145,4.925,4.548,68.0,10.77,49.11
-0.039,0.104,4.922,4.547,68.0,10.77,49.02
-0.099,0.145,4.921,4.545,68.0,10.77,48.97
-0.03,0.145,4.918,4.544,68.0,10.77,48.86
0.177,0.186,4.917,4.544,68.0,10.77,48.64
0.0,0.394,4.915,4.543,68.0,10.77,48.45
0.089,0.124,4.913,4.542,68.0,10.77,48.29
0.287,0.104,4.912,4.542,68.0,10.78,48.17
0.363,0.145,4.91,4.539,68.0,10.78,48.03
-0.026,0.124,4.908,4.539,68.0,10.78,47.84
-0.076,0.104,4.907,4.538,68.0,10.78,47.68
-0.072,0.124,4.905,4.537,68.0,10.78,47.54
-0.081,0.124,4.903,4.537,68.0,10.78,47.29
-0.087,0.104,4.902,4.534,68.0,10.78,47.0
-0.088,0.124,4.9,4.534,68.0,10.77,46.84
-0.086,0.124,4.898,4.534,68.0,10.78,46.78
-0.058,0.104,4.897,4.533,68.0,10.78,46.72
-0.048,0.124,4.897,4.533,68.0,10.78,46.65
-0.099,0.166,4.897,4.532,68.0,10.78,46.56
0.242,0.477,4.897,4.532,68.0,10.78,46.5
-0.07,0.145,4.9,4.532,68.0,10.77,46.5
0.017,0.124,4.902,4.532,68.0,10.77,46.49
0.123,0.104,4.906,4.532,68.0,10.78,46.47
0.351,0.104,4.911,4.532,68.0,10.78,46.43
0.249,0.104,4.916,4.533,68.0,10.78,46.42
-0.071,0.124,4.922,4.533,65.0,10.78,46.41
-0.087,0.083,4.929,4.534,65.0,10.78,46.35
-0.096,0.124,4.937,4.534,65.0,10.78,46.19
-0.099,0.124,4.946,4.535,65.0,10.78,46.12
-0.103,0.145,4.954,4.537,65.0,10.78,46.14
-0.104,0.104,4.963,4.539,65.0,10.78,46.17
-0.092,0.104,4.971,4.539,65.0,10.78,46.2
-0.063,0.124,4.981,4.542,65.0,10.78,46.19
-0.122,0.477,4.989,4.544,65.0,10.78,46.21
0.062,0.249,4.998,4.544,65.0,10.78,46.27
0.041,0.124,5.005,4.547,65.0,10.78,46.3
-0.024,0.124,5.013,4.547,65.0,10.78,46.32
0.071,0.104,5.02,4.549,65.0,10.78,46.33
0.282,0.104,5.026,4.55,65.0,10.78,46.33
0.282,0.145,5.033,4.552,65.0,10.78,46.35
-0.061,0.083,5.038,4.553,65.0,10.77,46.44
-0.085,0.104,5.042,4.554,65.0,10.78,46.46
-0.081,0.083,5.047,4.554,65.0,10.78,46.57
-0.089,0.124,5.052,4.555,65.0,10.78,46.81
-0.088,0.124,5.056,4.557,65.0,10.78,47.11
-0.071,0.124,5.059,4.557,65.0,10.77,47.37
-0.034,0.104,5.062,4.558,65.0,10.77,47.59
-0.097,0.373,5.065,4.559,65.0,10.77,47.81
0.082,0.186,5.066,4.559,65.0,10.78,48.34
0.085,0.166,5.067,4.559,65.0,10.78,48.37
0.002,0.083,5.069,4.559,65.0,10.78,48.64
0.099,0.104,5.069,4.559,65.0,10.77,48.86
0.313,0.145,5.069,4.562,65.0,10.78,49.09
0.297,0.104,5.069,4.56,65.0,10.78,49.34
-0.051,0.124,5.066,4.562,65.0,10.78,49.56
-0.08,0.083,5.065,4.562,65.0,10.78,49.66
-0.079,0.104,5.062,4.562,65.0,10.78,49.8
-0.088,0.104,5.06,4.562,65.0,10.78,50.01
-0.091,0.104,5.057,4.562,65.0,10.78,50.23
-0.082,0.104,5.054,4.56,65.0,10.78,50.34
-0.036,0.311,5.05,4.559,65.0,10.78,50.3
-0.105,0.269,5.047,4.559,65.0,10.78,50.25
-0.039,0.104,5.044,4.559,65.0,10.78,50.22
0.194,0.124,5.04,4.559,65.0,10.78,50.2
-0.002,0.124,5.035,4.559,65.0,10.78,50.19
0.086,0.124,5.032,4.557,65.0,10.78,50.1
0.285,0.104,5.028,4.557,70.0,10.78,50.0
0.358,0.083,5.023,4.557,70.0,10.77,49.88
-0.028,0.083,5.02,4.557,70.0,10.78,49.61
-0.075,0.124,5.015,4.554,70.0,10.77,49.37
-0.071,0.124,5.01,4.554,70.0,10.78,49.2
-0.08,0.124,5.007,4.553,70.0,10.78,49.05
-0.089,0.104,5.003,4.552,70.0,10.77,48.9
-0.092,0.166,4.998,4.552,70.0,10.78,48.63
-0.055,0.477,4.995,4.55,70.0,10.78,48.35
-0.053,0.124,4.992,4.549,70.0,10.77,48.13
-0.106,0.104,4.988,4.548,70.0,10.77,47.96
0.271,0.104,4.985,4.547,70.0,10.78,47.78
-0.1,0.186,4.982,4.547,70.0,10.77,47.59
0.013,0.083,4.978,4.544,70.0,10.77,47.39
0.121,0.104,4.975,4.544,69.0,10.77,47.23
0.355,0.062,4.973,4.543,69.0,10.78,47.0
0.208,0.145,4.972,4.542,69.0,10.78,46.7
-0.087,0.104,4.97,4.542,69.0,10.77,46.55
-0.095,0.083,4.969,4.542,69.0,10.77,46.47
-0.094,0.104,4.972,4.542,69.0,10.77,46.44
-0.102,0.124,4.974,4.542,69.0,10.78,46.41
-0.106,0.104,4.978,4.544,69.0,10.77,46.34
-0.102,0.435,4.984,4.545,69.0,10.77,46.33
-0.038,0.166,4.99,4.547,69.0,10.78,46.35
-0.097,0.104,4.999,4.55,69.0,10.78,46.36
-0.115,0.124,5.009,4.553,64.0,10.77,46.36
0.228,0.145,5.021,4.557,64.0,10.78,46.34
-0.029,0.124,5.031,4.56,64.0,10.78,46.33
0.05,0.124,5.043,4.565,64.0,10.77,46.32
0.206,0.104,5.056,4.573,64.0,10.77,46.31
0.408,0.104,5.07,4.578,64.0,10.78,46.17
0.047,0.104,5.082,4.583,64.0,10.78,46.07
-0.087,0.104,5.096,4.588,64.0,10.77,46.08
-0.084,0.145,5.108,4.593,64.0,10.77,46.09
-0.09,0.124,5.12,4.598,64.0,10.77,46.11
-0.098,0.145,5.133,4.602,64.0,10.78,46.11
-0.085,0.124,5.147,4.607,64.0,10.77,46.11
-0.046,0.414,5.158,4.612,64.0,10.77,46.16
-0.048,0.228,5.17,4.617,64.0,10.78,46.2
-0.113,0.124,5.18,4.622,64.0,10.77,46.28
0.025,0.104,5.19,4.627,87.0,10.77,46.49
0.089,0.145,5.2,4.63,87.0,10.77,46.74
-0.016,0.124,5.211,4.635,87.0,10.77,46.98
0.072,0.104,5.222,4.639,87.0,10.77,47.23
0.28,0.166,5.231,4.642,87.0,10.77,47.41
0.293,0.104,5.239,4.646,87.0,10.77,47.5
-0.07,0.104,5.246,4.65,87.0,10.77,47.68
-0.106,0.145,5.255,4.655,87.0,10.77,47.93
-0.107,0.124,5.265,4.66,87.0,10.77,48.2
-0.113,0.166,5.274,4.664,87.0,10.77,48.41
-0.115,0.124,5.285,4.667,87.0,10.77,48.57
-0.062,0.352,5.296,4.672,87.0,10.77,48.76
-0.097,0.269,5.308,4.675,87.0,10.77,49.01
-0.127,0.083,5.322,4.68,87.0,10.77,49.24
0.263,0.166,5.336,4.685,90.0,10.77,49.47
-0.109,0.124,5.351,4.687,90.0,10.77,49.68
0.012,0.104,5.366,4.692,90.0,10.77,49.9
0.143,0.124,5.381,4.694,90.0,10.77,50.13
0.374,0.124,5.395,4.698,90.0,10.77,50.29
0.097,0.104,5.41,4.702,90.0,10.77,50.27
-0.093,0.104,5.424,4.704,90.0,10.77,50.25
-0.091,0.145,5.436,4.707,90.0,10.77,50.27
-0.091,0.124,5.449,4.709,90.0,10.77,50.28
-0.1,0.104,5.458,4.712,90.0,10.77,50.23
-0.104,0.104,5.466,4.714,90.0,10.77,50.08
-0.054,0.414,5.474,4.717,90.0,10.77,49.9
-0.117,0.145,5.481,4.718,90.0,10.77,49.77
-0.137,0.124,5.486,4.719,90.0,10.77,49.66
0.223,0.104,5.49,4.721,90.0,10.77,49.53
-0.064,0.083,5.494,4.721,90.0,10.77,49.36
0.02,0.104,5.496,4.723,90.0,10.77,49.16
0.175,0.083,5.497,4.723,96.0,10.77,48.97
0.388,0.104,5.499,4.724,96.0,10.77,48.7
0.027,0.104,5.499,4.726,96.0,10.77,48.33
-0.111,0.104,5.499,4.723,96.0,10.77,48.05
-0.104,0.104,5.496,4.723,96.0,10.77,47.86
-0.114,0.104,5.492,4.723,96.0,10.77,47.71
-0.123,0.145,5.488,4.721,96.0,10.77,47.53
-0.123,0.083,5.482,4.721,96.0,10.77,47.32
-0.119,0.331,5.478,4.719,96.0,10.77,47.16
-0.067,0.331,5.47,4.717,96.0,10.77,47.05
-0.127,0.083,5.464,4.716,96.0,10.77,46.93
-0.144,0.124,5.455,4.713,96.0,10.77,46.82
0.196,0.104,5.446,4.712,96.0,10.77,46.72
-0.059,0.124,5.439,4.709,96.0,10.77,46.64
0.014,0.083,5.43,4.708,96.0,10.77,46.57
0.179,0.124,5.421,4.706,96.0,10.77,46.52
0.372,0.166,5.413,4.703,96.0,10.77,46.37
-0.012,0.104,5.404,4.701,96.0,10.77,46.19
-0.124,0.124,5.396,4.698,96.0,10.77,46.16
-0.121,0.124,5.388,4.696,96.0,10.77,46.17
-0.129,0.166,5.379,4.693,96.0,10.77,46.21
-0.139,0.124,5.372,4.692,96.0,10.77,46.2
-0.141,0.104,5.364,4.689,96.0,10.77,46.2
-0.142,0.394,5.357,4.686,96.0,10.77,46.24
-0.087,0.394,5.343,4.682,96.0,10.77,46.3
-0.144,0.083,5.343,4.681,96.0,10.77,46.3
-0.165,0.145,5.336,4.679,96.0,10.77,46.29
0.187,0.083,5.331,4.677,96.0,10.77,46.29
-0.116,0.104,5.323,4.674,96.0,10.77,46.28
-0.021,0.166,5.317,4.671,96.0,10.77,46.28
0.119,0.124,5.311,4.669,96.0,10.77,46.28
0.351,0.166,5.306,4.666,96.0,10.77,46.19
0.021,0.104,5.301,4.665,96.0,10.77,46.07
-0.155,0.145,5.296,4.662,96.0,10.77,46.07
-0.152,0.166,5.291,4.66,96.0,10.77,46.09
-0.156,0.145,5.286,4.657,96.0,10.77,46.18
-0.165,0.124,5.281,4.655,96.0,10.77,46.33
-0.164,0.104,5.276,4.652,96.0,10.77,46.45
-0.155,0.166,5.273,4.65,96.0,10.77,46.6
-0.11,0.497,5.269,4.649,96.0,10.77,46.82
-0.169,0.124,5.265,4.646,96.0,10.77,47.06
-0.157,0.166,5.261,4.644,96.0,10.77,47.29
0.164,0.104,5.258,4.641,96.0,10.77,47.53
-0.075,0.124,5.254,4.639,96.0,10.77,47.77
0.002,0.124,5.25,4.637,96.0,10.77,48.03
0.18,0.124,5.246,4.635,96.0,10.77,48.28
0.313,0.124,5.244,4.634,96.0,10.77,48.44
-0.074,0.145,5.241,4.631,96.0,10.77,48.56
-0.145,0.124,5.238,4.629,96.0,10.77,48.76
-0.138,0.124,5.234,4.627,96.0,10.77,49.01
-0.144,0.104,5.231,4.625,96.0,10.77,49.3
-0.15,0.166,5.229,4.624,96.0,10.77,49.51
-0.144,0.166,5.225,4.621,96.0,10.77,49.68
-0.096,0.373,5.221,4.62,96.0,10.77,49.87
-0.152,0.124,5.219,4.617,96.0,10.77,50.08
-0.162,0.145,5.216,4.616,96.0,10.77,50.23
0.197,0.104,5.213,4.614,96.0,10.77,50.33
-0.067,0.104,5.209,4.612,96.0,10.77,50.39
0.01,0.104,5.207,4.61,96.0,10.77,50.41
0.182,0.104,5.204,4.609,66.0,10.77,50.4
0.358,0.124,5.202,4.606,66.0,10.77,50.31
-0.023,0.124,5.198,4.605,66.0,10.77,50.13
-0.12,0.186,5.196,4.604,66.0,10.77,50.0
-0.113,0.166,5.192,4.601,66.0,10.77,49.93
-0.121,0.104,5.189,4.6,66.0,10.77,49.91
-0.126,0.083,5.187,4.599,66.0,10.77,49.79
-0.124,0.456,5.183,4.598,66.0,10.77,49.61
-0.12,0.186,5.177,4.594,66.0,10.77,49.34
-0.061,0.104,5.177,4.594,66.0,10.77,49.33
-0.112,0.124,5.174,4.593,66.0,10.77,49.23
-0.126,0.083,5.171,4.592,66.0,10.77,49.09
0.235,0.104,5.168,4.589,66.0,10.77,48.91
-0.056,0.145,5.166,4.588,68.0,10.77,48.72
0.031,0.145,5.163,4.587,68.0,10.77,48.51
0.182,0.124,5.161,4.587,68.0,10.77,48.16
0.415,0.104,5.158,4.584,68.0,10.77,47.88
0.074,0.124,5.159,4.584,68.0,10.77,47.73
-0.088,0.104,5.161,4.584,68.0,10.77,47.62
-0.084,0.124,5.163,4.584,68.0,10.77,47.53
-0.089,0.104,5.167,4.584,68.0,10.77,47.36
-0.095,0.497,5.173,4.585,68.0,10.77,47.21
-0.092,0.249,5.18,4.587,68.0,10.77,47.12
-0.069,0.124,5.19,4.588,68.0,10.77,47.04
-0.056,0.104,5.2,4.592,68.0,10.77,46.95
-0.038,0.104,5.213,4.595,68.0,10.77,46.85
-0.092,0.145,5.226,4.599,68.0,10.77,46.76
0.056,0.083,5.241,4.602,67.0,10.77,46.69
0.138,0.124,5.256,4.61,67.0,10.77,46.61
0.025,0.124,5.274,4.616,67.0,10.77,46.41
0.116,0.104,5.291,4.623,67.0,10.77,46.27
0.334,0.228,5.31,4.633,67.0,10.77,46.26
0.368,0.124,5.328,4.641,67.0,10.77,46.27
-0.013,0.104,5.347,4.651,67.0,10.77,46.3
-0.051,0.104,5.367,4.662,67.0,10.77,46.29
-0.047,0.29,5.385,4.673,67.0,10.77,46.29
-0.059,0.352,5.42,4.694,67.0,10.77,46.37
-0.068,0.104,5.424,4.697,67.0,10.77,46.37
-0.071,0.083,5.44,4.708,67.0,10.77,46.38
-0.071,0.124,5.458,4.719,67.0,10.77,46.38
-0.044,0.083,5.475,4.732,67.0,10.77,46.38
-0.047,0.104,5.492,4.747,67.0,10.77,46.37
-0.09,0.104,5.507,4.759,64.0,10.77,46.38
0.284,0.124,5.522,4.774,64.0,10.77,46.3
-0.096,0.124,5.535,4.789,64.0,10.77,46.25
0.025,0.104,5.547,4.801,64.0,10.77,46.41
0.133,0.124,5.558,4.814,64.0,10.77,46.64
0.367,0.104,5.568,4.826,64.0,10.77,46.86
0.226,0.145,5.575,4.839,64.0,10.77,47.02
-0.07,0.124,5.582,4.851,64.0,10.77,47.18
-0.084,0.456,5.587,4.863,64.0,10.77,47.38
-0.088,0.186,5.592,4.874,64.0,10.77,47.62
-0.1,0.145,5.593,4.884,64.0,10.77,47.84
-0.103,0.145,5.596,4.893,64.0,10.77,48.04
-0.101,0.145,5.594,4.901,64.0,10.77,48.24
-0.049,0.145,5.593,4.908,64.0,10.77,48.44
-0.108,0.124,5.591,4.913,64.0,10.77,48.65
-0.115,0.124,5.584,4.926,64.0,10.77,48.87
0.22,0.104,5.584,4.927,64.0,10.77,48.88
-0.027,0.124,5.579,4.931,64.0,10.77,49.0
0.049,0.124,5.574,4.937,64.0,10.77,49.21
0.224,0.124,5.569,4.942,64.0,10.77,49.46
0.377,0.104,5.562,4.946,64.0,10.77,49.67
-0.002,0.145,5.555,4.951,64.0,10.77,49.78
-0.085,0.145,5.548,4.953,64.0,10.77,49.91
-0.081,0.145,5.54,4.957,64.0,10.77,50.06
-0.087,0.145,5.532,4.96,64.0,10.77,50.2
-0.08,0.145,5.525,4.964,64.0,10.77,50.27
-0.039,0.124,5.518,4.967,64.0,10.77,50.31
-0.035,0.104,5.503,4.969,64.0,10.77,50.33
-0.105,0.083,5.502,4.969,64.0,10.77,50.33
-0.023,0.104,5.495,4.969,51.0,10.77,50.31
0.17,0.145,5.487,4.969,51.0,10.77,50.14
-0.009,0.104,5.48,4.969,51.0,10.77,50.04
0.081,0.124,5.473,4.967,51.0,10.77,50.04
0.284,0.104,5.465,4.967,51.0,10.77,50.05
0.338,0.104,5.458,4.964,51.0,10.77,50.04
-0.039,0.124,5.451,4.963,51.0,10.77,49.93
-0.079,0.373,5.445,4.962,51.0,10.77,49.83
-0.071,0.166,5.438,4.958,51.0,10.77,49.79
-0.077,0.124,5.43,4.955,51.0,10.77,49.75
-0.08,0.083,5.424,4.952,51.0,10.77,49.69
-0.079,0.124,5.418,4.95,51.0,10.77,49.58
-0.021,0.104,5.41,4.946,51.0,10.77,49.43
-0.069,0.124,5.404,4.943,51.0,10.77,49.27
-0.091,0.145,5.398,4.941,51.0,10.77,49.07
0.278,0.104,5.393,4.937,51.0,10.77,48.73
-0.026,0.124,5.386,4.933,51.0,10.77,48.46
0.068,0.124,5.381,4.931,51.0,10.77,48.3
0.215,0.124,5.376,4.926,51.0,10.77,48.19
0.449,0.104,5.369,4.921,51.0,10.77,48.09
0.124,0.124,5.363,4.918,51.0,10.77,47.91
-0.046,0.166,5.358,4.913,51.0,10.77,47.77
-0.041,0.518,5.353,4.911,51.0,10.77,47.65
-0.048,0.124,5.348,4.906,51.0,10.77,47.55
-0.055,0.124,5.343,4.901,51.0,10.77,47.42
-0.055,0.104,5.341,4.898,51.0,10.77,47.29
-0.037,0.145,5.336,4.893,51.0,10.77,47.17
-0.001,0.124,5.331,4.888,51.0,10.77,47.05
-0.056,0.104,5.326,4.885,63.0,10.77,46.93
-0.078,0.124,5.323,4.881,63.0,10.77,46.78
0.264,0.104,5.318,4.876,63.0,10.77,46.55
0.0,0.166,5.315,4.873,63.0,10.77,46.43
0.078,0.124,5.311,4.868,63.0,10.77,46.41
0.23,0.104,5.308,4.865,63.0,10.77,46.42
0.445,0.145,5.305,4.861,63.0,10.77,46.42
0.083,0.124,5.303,4.858,63.0,10.77,46.39
-0.059,0.124,5.299,4.854,63.0,10.77,46.41
-0.056,0.477,5.296,4.849,63.0,10.77,46.44
-0.066,0.249,5.293,4.845,63.0,10.77,46.47
-0.076,0.104,5.29,4.841,63.0,10.77,46.47
-0.083,0.083,5.288,4.838,63.0,10.77,46.47
-0.081,0.124,5.285,4.834,63.0,10.77,46.47
-0.032,0.145,5.281,4.831,63.0,10.77,46.46
-0.096,0.104,5.28,4.828,61.0,10.77,46.46
-0.098,0.104,5.276,4.824,61.0,10.77,46.45
0.223,0.124,5.274,4.821,61.0,10.77,46.42
-0.02,0.124,5.271,4.818,61.0,10.77,46.53
0.222,0.166,5.269,4.814,61.0,10.77,46.74
0.267,0.124,5.266,4.811,61.0,10.77,46.98
0.389,0.104,5.264,4.809,61.0,10.77,47.2
0.001,0.145,5.261,4.806,61.0,10.77,47.34
-0.091,0.104,5.258,4.803,61.0,10.77,47.51
-0.086,0.435,5.255,4.799,61.0,10.77,47.72
-0.094,0.207,5.253,4.796,61.0,10.77,47.94
-0.102,0.124,5.249,4.793,61.0,10.77,48.14
-0.104,0.104,5.246,4.791,61.0,10.77,48.34
-0.077,0.145,5.244,4.788,61.0,10.77,48.54
-0.068,0.145,5.24,4.785,61.0,10.77,48.74
-0.118,0.145,5.238,4.783,61.0,10.77,48.95
-0.087,0.145,5.235,4.78,61.0,10.77,49.11
-0.037,0.145,5.233,4.778,61.0,10.77,49.18
-0.01,0.104,5.229,4.774,61.0,10.77,49.31
0.094,0.124,5.226,4.772,61.0,10.77,49.52
0.322,0.104,5.224,4.769,61.0,10.77,49.75
0.221,0.104,5.22,4.767,61.0,10.77,49.97
-0.085,0.124,5.218,4.764,61.0,10.77,50.07
-0.097,0.29,5.214,4.763,61.0,10.77,50.15
-0.098,0.331,5.212,4.761,61.0,10.77,50.23
-0.106,0.104,5.209,4.758,61.0,10.77,50.32
-0.108,0.124,5.207,4.756,61.0,10.77,50.34
-0.103,0.083,5.204,4.753,61.0,10.77,50.34
-0.052,0.104,5.201,4.751,61.0,10.77,50.33
-0.114,0.145,5.198,4.749,65.0,10.77,50.31
-0.123,0.124,5.196,4.747,65.0,10.77,50.29
0.227,0.104,5.193,4.744,65.0,10.77,50.12
-0.034,0.124,5.191,4.742,65.0,10.77,49.95
0.04,0.083,5.188,4.741,65.0,10.77,49.89
0.207,0.104,5.186,4.739,65.0,10.77,49.87
0.366,0.104,5.183,4.737,65.0,10.77,49.85
-0.015,0.124,5.179,4.733,65.0,10.77,49.73
-0.109,0.331,5.178,4.732,65.0,10.77,49.61
-0.103,0.29,5.176,4.731,65.0,10.77,49.51
-0.114,0.104,5.173,4.728,65.0,10.77,49.45
-0.12,0.104,5.171,4.726,65.0,10.77,49.36
-0.12,0.083,5.168,4.724,65.0,10.77,49.27
-0.113,0.104,5.166,4.723,65.0,10.77,49.14
-0.058,0.124,5.163,4.721,66.0,10.77,49.0
-0.101,0.124,5.161,4.718,66.0,10.77,48.82
-0.117,0.145,5.158,4.716,66.0,10.77,48.51
0.247,0.104,5.157,4.716,66.0,10.77,48.21
-0.054,0.124,5.154,4.713,66.0,10.77,48.04
0.038,0.104,5.152,4.711,66.0,10.77,47.92
0.185,0.124,5.149,4.709,66.0,10.77,47.83
0.415,0.124,5.148,4.708,66.0,10.77,47.66
0.094,0.124,5.146,4.706,66.0,10.77,47.5
-0.08,0.477,5.143,4.704,66.0,10.77,47.35
-0.073,0.166,5.142,4.703,66.0,10.77,47.24
-0.081,0.124,5.141,4.702,66.0,10.77,47.14
-0.087,0.124,5.138,4.701,66.0,10.77,47.02
-0.09,0.104,5.136,4.698,66.0,10.77,46.91
-0.089,0.083,5.134,4.696,66.0,10.77,46.82
-0.075,0.083,5.133,4.696,64.0,10.77,46.76
-0.034,0.104,5.131,4.693,64.0,10.77,46.65
-0.096,0.104,5.131,4.692,64.0,10.77,46.45
-0.053,0.083,5.129,4.691,64.0,10.77,46.34
0.206,0.083,5.128,4.688,64.0,10.77,46.33
0.002,0.104,5.126,4.688,64.0,10.77,46.37
0.089,0.104,5.126,4.686,64.0,10.77,46.38
0.276,0.145,5.124,4.684,64.0,10.77,46.37
0.39,0.166,5.124,4.684,64.0,10.77,46.4
-0.011,0.414,5.122,4.682,64.0,10.77,46.43
-0.077,0.083,5.121,4.681,64.0,10.77,46.46
-0.074,0.083,5.121,4.679,64.0,10.77,46.47
-0.084,0.104,5.12,4.679,64.0,10.77,46.45
-0.092,0.166,5.119,4.677,64.0,10.77,46.45
-0.09,0.124,5.119,4.676,64.0,10.77,46.45
-0.086,0.145,5.119,4.675,62.0,10.77,46.45
-0.052,0.145,5.116,4.674,62.0,10.77,46.41
-0.056,0.083,5.116,4.671,62.0,10.77,46.27
-0.096,0.145,5.116,4.67,62.0,10.77,46.23
0.285,0.166,5.114,4.669,62.0,10.77,46.41
-0.101,0.104,5.114,4.669,62.0,10.77,46.7
0.025,0.104,5.111,4.666,62.0,10.77,46.95
0.138,0.124,5.111,4.666,62.0,10.77,47.14
0.373,0.186,5.109,4.664,62.0,10.77,47.33
0.225,0.497,5.109,4.664,62.0,10.77,47.54
-0.064,0.104,5.106,4.661,62.0,10.77,47.74
-0.076,0.104,5.105,4.661,62.0,10.77,47.9
-0.081,0.104,5.104,4.659,62.0,10.77,48.06
-0.091,0.145,5.101,4.657,62.0,10.77,48.24
-0.095,0.124,5.1,4.656,62.0,10.77,48.43
-0.095,0.186,5.097,4.655,62.0,10.77,48.64
-0.043,0.104,5.096,4.654,62.0,10.77,48.76
-0.083,0.124,5.095,4.654,62.0,10.77,48.83
-0.106,0.124,5.091,4.651,62.0,10.77,48.99
0.258,0.104,5.091,4.651,62.0,10.77,49.2
-0.061,0.124,5.089,4.649,62.0,10.77,49.46
0.034,0.104,5.087,4.649,62.0,10.77,49.64
0.175,0.104,5.085,4.646,62.0,10.77,49.76
0.399,0.352,5.082,4.645,62.0,10.77,49.9
0.082,0.228,5.08,4.644,62.0,10.77,50.06
-0.088,0.124,5.079,4.644,62.0,10.77,50.2
-0.088,0.145,5.076,4.641,62.0,10.77,50.29
-0.098,0.104,5.074,4.641,62.0,10.77,50.33
-0.108,0.124,5.072,4.64,62.0,10.77,50.36
-0.109,0.083,5.07,4.639,65.0,10.77,50.39
-0.091,0.083,5.069,4.636,65.0,10.77,50.34
-0.061,0.124,5.066,4.636,65.0,10.77,50.17
-0.118,0.124,5.064,4.634,65.0,10.77,50.07
0.141,0.124,5.062,4.634,65.0,10.77,50.03
0.001,0.166,5.06,4.631,65.0,10.77,50.02
-0.007,0.124,5.059,4.631,65.0,10.77,49.95
0.09,0.456,5.056,4.63,65.0,10.77,49.8
0.31,0.477,5.055,4.629,65.0,10.77,49.66
0.271,0.124,5.052,4.627,65.0,10.77,49.6
-0.075,0.124,5.051,4.626,72.0,10.77,49.51
-0.098,0.124,5.049,4.625,72.0,10.77,49.38
-0.097,0.145,5.046,4.622,72.0,10.77,49.06
-0.108,0.124,5.046,4.621,72.0,10.77,49.04
-0.114,0.083,5.044,4.621,72.0,10.77,48.88
-0.116,0.104,5.041,4.62,72.0,10.77,48.63
-0.093,0.104,5.04,4.619,72.0,10.77,48.31
-0.075,0.124,5.039,4.617,72.0,10.77,48.07
-0.132,0.104,5.037,4.616,72.0,10.77,47.94
0.164,0.104,5.034,4.614,72.0,10.77,47.86
-0.055,0.124,5.033,4.614,72.0,10.77,47.77
-0.016,0.124,5.03,4.612,72.0,10.77,47.62
0.087,0.331,5.029,4.611,72.0,10.77,47.51
0.317,0.331,5.027,4.61,72.0,10.77,47.44
0.257,0.104,5.025,4.609,72.0,10.77,47.36
-0.091,0.104,5.024,4.607,72.0,10.77,47.29
-0.112,0.083,5.022,4.606,72.0,10.77,47.22
-0.111,0.104,5.02,4.606,72.0,10.77,47.13
-0.122,0.124,5.018,4.604,87.0,10.77,47.06
-0.126,0.104,5.017,4.604,87.0,10.77,47.01
-0.128,0.124,5.014,4.601,87.0,10.77,46.83
-0.125,0.124,5.013,4.601,87.0,10.77,46.66
-0.072,0.166,5.012,4.601,87.0,10.77,46.61
-0.128,0.124,5.009,4.599,87.0,10.77,46.64
-0.14,0.124,5.009,4.599,87.0,10.77,46.64
0.194,0.124,5.008,4.597,87.0,10.77,46.61
-0.05,0.104,5.007,4.595,87.0,10.77,46.57
0.022,0.186,5.005,4.594,87.0,10.77,46.57
0.19,0.477,5.004,4.594,87.0,10.77,46.59
0.383,0.124,5.004,4.593,87.0,10.77,46.6
0.001,0.104,5.002,4.592,87.0,10.77,46.57
-0.118,0.186,5.002,4.59,87.0,10.77,46.58
-0.111,0.062,5.002,4.589,87.0,10.77,46.57
-0.12,0.145,4.999,4.588,87.0,10.77,46.54
-0.127,0.124,4.999,4.587,60.0,10.77,46.55
-0.124,0.124,4.998,4.587,60.0,10.77,46.48
-0.123,0.166,4.997,4.584,60.0,10.77,46.33
-0.087,0.104,4.997,4.584,60.0,10.77,46.29
-0.093,0.083,4.994,4.582,60.0,10.77,46.31
-0.132,0.104,4.994,4.582,60.0,10.77,46.35
0.256,0.104,4.992,4.582,60.0,10.77,46.38
-0.133,0.104,4.992,4.579,60.0,10.77,46.37
-0.003,0.124,4.989,4.579,60.0,10.77,46.4
0.111,0.352,4.989,4.578,60.0,10.77,46.45
0.352,0.166,4.987,4.577,60.0,10.77,46.48
0.18,0.083,4.987,4.575,60.0,10.77,46.48
-0.101,0.104,4.984,4.574,60.0,10.77,46.48
-0.111,0.124,4.984,4.574,60.0,10.77,46.56
-0.115,0.124,4.982,4.572,60.0,10.77,46.71
-0.125,0.145,4.982,4.572,60.0,10.77,46.88
-0.131,0.104,4.98,4.57,60.0,10.77,47.02
-0.133,0.145,4.979,4.569,60.0,10.77,47.04
-0.084,0.145,4.978,4.569,60.0,10.77,47.17
-0.128,0.104,4.977,4.567,60.0,10.77,47.42
-0.15,0.104,4.974,4.567,60.0,10.77,47.7
0.208,0.145,4.973,4.564,60.0,10.77,47.98
-0.078,0.124,4.972,4.564,60.0,10.77,48.14
0.004,0.124,4.97,4.563,60.0,10.77,48.28
0.154,0.352,4.968,4.562,60.0,10.77,48.47
0.366,0.269,4.967,4.56,60.0,10.77,48.67
0.022,0.124,4.965,4.559,60.0,10.77,48.86
-0.123,0.124,4.964,4.559,60.0,10.77,49.01
-0.121,0.104,4.962,4.558,60.0,10.77,49.21
-0.128,0.104,4.962,4.557,60.0,10.77,49.38
-0.138,0.145,4.959,4.555,61.0,10.77,49.57
-0.138,0.145,4.959,4.554,61.0,10.77,49.72
-0.101,0.104,4.957,4.554,61.0,10.77,49.73
-0.106,0.104,4.955,4.552,61.0,10.77,49.75
0.163,0.124,4.954,4.552,61.0,10.77,49.83
0.131,0.145,4.952,4.55,61.0,10.77,49.9
-0.145,0.083,4.951,4.549,61.0,10.77,49.95
-0.015,0.104,4.95,4.547,61.0,10.77,49.89
0.101,0.311,4.947,4.548,61.0,10.77,49.85
0.341,0.331,4.947,4.547,61.0,10.77,49.87
0.176,0.104,4.945,4.544,61.0,10.77,49.9
-0.1,0.104,4.945,4.544,61.0,10.77,49.9
-0.104,0.083,4.942,4.544,61.0,10.77,49.87
-0.102,0.145,4.941,4.542,61.0,10.77,49.85
-0.11,0.104,4.94,4.542,65.0,10.77,49.82
-0.115,0.124,4.937,4.539,65.0,10.77,49.76
-0.115,0.083,4.937,4.539,65.0,10.77,49.57
-0.083,0.104,4.935,4.538,65.0,10.77,49.41
-0.074,0.104,4.933,4.537,65.0,10.77,49.32
-0.122,0.104,4.932,4.537,65.0,10.77,49.29
0.239,0.124,4.932,4.535,65.0,10.77,49.27
-0.093,0.104,4.93,4.534,65.0,10.77,49.14
0.001,0.124,4.928,4.533,65.0,10.77,48.99
0.113,0.394,4.927,4.532,65.0,10.77,48.87
0.352,0.186,4.925,4.53,65.0,10.77,48.77
0.254,0.104,4.925,4.529,65.0,10.77,48.68
-0.068,0.145,4.922,4.529,65.0,10.77,48.57
-0.079,0.104,4.921,4.529,65.0,10.77,48.42
-0.083,0.104,4.92,4.527,65.0,10.77,48.29
-0.094,0.124,4.918,4.525,64.0,10.77,48.18
-0.1,0.124,4.917,4.524,64.0,10.77,47.99
-0.102,0.124,4.917,4.524,64.0,10.77,47.71
-0.1,0.104,4.915,4.524,64.0,10.77,47.54
-0.05,0.062,4.913,4.522,64.0,10.77,47.49
-0.093,0.124,4.912,4.522,64.0,10.77,47.48
-0.112,0.104,4.911,4.519,64.0,10.77,47.41
0.252,0.124,4.91,4.519,64.0,10.77,47.33
-0.065,0.145,4.908,4.518,64.0,10.77,47.25
0.036,0.414,4.907,4.517,64.0,10.77,47.21
0.17,0.166,4.906,4.517,64.0,10.77,47.18
0.415,0.145,4.905,4.515,64.0,10.77,47.12
0.129,0.124,4.903,4.514,64.0,10.77,47.05
-0.081,0.145,4.902,4.514,64.0,10.77,47.0
-0.082,0.104,4.902,4.513,64.0,10.77,46.94
-0.087,0.104,4.9,4.512,60.0,10.77,46.91
-0.093,0.145,4.9,4.512,60.0,10.77,46.82
-0.101,0.104,4.898,4.509,60.0,10.77,46.64
-0.102,0.104,4.897,4.509,60.0,10.77,46.52
-0.053,0.104,4.895,4.509,60.0,10.77,46.52
-0.054,0.104,4.895,4.507,60.0,10.77,46.55
-0.096,0.124,4.893,4.507,60.0,10.77,46.55
-0.118,0.124,4.892,4.506,60.0,10.77,46.52
0.234,0.083,4.892,4.505,60.0,10.77,46.54
-0.077,0.477,4.891,4.505,60.0,10.77,46.57
0.022,0.249,4.89,4.505,60.0,10.77,46.59
0.16,0.124,4.89,4.502,60.0,10.77,46.6
0.399,0.145,4.887,4.502,60.0,10.77,46.59
0.106,0.124,4.887,4.501,60.0,10.77,46.58
-0.099,0.083,4.886,4.5,60.0,10.77,46.59
-0.099,0.124,4.885,4.5,62.0,10.77,46.71
-0.105,0.104,4.885,4.498,62.0,10.77,46.91
-0.112,0.124,4.882,4.497,62.0,10.77,47.04
-0.12,0.083,4.882,4.497,62.0,10.77,47.21
-0.121,0.083,4.882,4.495,62.0,10.77,47.43
-0.112,0.104,4.881,4.495,62.0,10.77,47.7
-0.07,0.124,4.88,4.492,62.0,10.77,47.95
-0.129,0.124,4.878,4.492,62.0,10.77,48.14
-0.056,0.145,4.877,4.492,62.0,10.77,48.35
0.143,0.456,4.876,4.49,62.0,10.77,48.59
-0.03,0.104,4.875,4.49,62.0,10.77,48.81
0.054,0.104,4.873,4.488,62.0,10.77,49.02
0.245,0.104,4.872,4.488,62.0,10.77,49.2
0.342,0.124,4.871,4.487,62.0,10.77,49.4
-0.044,0.083,4.87,4.486,62.0,10.77,49.58
-0.101,0.104,4.868,4.485,63.0,10.77,49.78
-0.096,0.104,4.867,4.485,63.0,10.77,49.85
-0.107,0.145,4.866,4.483,63.0,10.77,49.9
-0.109,0.083,4.865,4.482,63.0,10.77,50.02
-0.111,0.104,4.862,4.482,63.0,10.77,50.18
-0.074,0.104,4.862,4.481,63.0,10.77,50.32
-0.083,0.104,4.861,4.48,63.0,10.77,50.33
-0.124,0.186,4.86,4.48,63.0,10.77,50.3
0.268,0.228,4.859,4.478,63.0,10.77,50.31
-0.121,0.104,4.858,4.477,63.0,10.77,50.35
0.005,0.124,4.856,4.477,63.0,10.77,50.38
0.123,0.083,4.855,4.476,63.0,10.77,50.4
0.359,0.124,4.853,4.475,63.0,10.77,50.41
0.178,0.083,4.853,4.475,63.0,10.77,50.4
-0.085,0.145,4.853,4.472,52.0,10.77,50.4
-0.089,0.104,4.85,4.472,52.0,10.77,50.26
-0.093,0.124,4.85,4.471,52.0,10.77,50.11
-0.102,0.145,4.849,4.47,52.0,10.77,50.08
-0.104,0.083,4.848,4.47,52.0,10.77,50.07
-0.104,0.104,4.845,4.468,52.0,10.77,50.08
-0.059,0.145,4.845,4.467,52.0,10.77,49.99
-0.093,0.435,4.844,4.467,52.0,10.77,49.82
-0.116,0.249,4.843,4.467,52.0,10.77,49.81
0.261,0.104,4.843,4.465,52.0,10.77,49.78
-0.071,0.104,4.84,4.463,52.0,10.77,49.74
0.038,0.124,4.84,4.462,52.0,10.77,49.67
0.17,0.104,4.839,4.462,52.0,10.77,49.57
0.409,0.104,4.838,4.461,52.0,10.77,49.47
0.133,0.124,4.836,4.46,52.0,10.77,49.32
-0.073,0.145,4.835,4.46,52.0,10.77,49.07
-0.07,0.124,4.835,4.458,52.0,10.77,48.86
-0.075,0.104,4.833,4.457,52.0,10.77,48.74
-0.082,0.124,4.833,4.457,52.0,10.77,48.67
-0.086,0.083,4.833,4.455,52.0,10.77,48.6
-0.085,0.083,4.83,4.455,52.0,10.77,48.42
-0.077,0.29,4.83,4.455,52.0,10.77,48.28
-0.031,0.331,4.83,4.453,52.0,10.77,48.18
-0.09,0.186,4.829,4.453,52.0,10.77,48.07
-0.072,0.124,4.828,4.452,52.0,10.77,47.96
0.223,0.124,4.828,4.45,52.0,10.77,47.85
-0.003,0.083,4.828,4.45,52.0,10.77,47.71
0.077,0.124,4.828,4.45,64.0,10.77,47.58
0.256,0.186,4.828,4.45,64.0,10.77,47.49
0.401,0.104,4.828,4.447,64.0,10.77,47.24
0.0,0.124,4.828,4.447,64.0,10.77,47.02
-0.084,0.124,4.828,4.447,64.0,10.77,46.93
-0.081,0.124,4.828,4.446,64.0,10.77,46.88
-0.091,0.124,4.828,4.445,64.0,10.77,46.87
-0.097,0.083,4.828,4.445,64.0,10.77,46.8
-0.104,0.228,4.828,4.443,64.0,10.77,46.73
-0.103,0.352,4.829,4.442,64.0,10.77,46.71
-0.068,0.456,4.83,4.442,64.0,10.77,46.71
-0.075,0.104,4.83,4.442,64.0,10.77,46.69
-0.112,0.104,4.83,4.442,61.0,10.77,46.66
0.28,0.104,4.833,4.44,61.0,10.77,46.64
-0.115,0.166,4.833,4.44,61.0,10.77,46.64
0.015,0.124,4.833,4.44,61.0,10.77,46.61
0.128,0.145,4.833,4.44,61.0,10.77,46.6
0.369,0.124,4.833,4.437,61.0,10.77,46.52
0.204,0.104,4.835,4.437,61.0,10.77,46.37
-0.085,0.124,4.835,4.436,61.0,10.77,46.33
-0.094,0.145,4.835,4.435,61.0,10.77,46.35
-0.099,0.083,4.835,4.435,61.0,10.77,46.39
-0.109,0.124,4.835,4.435,61.0,10.77,46.46
-0.115,0.083,4.835,4.435,61.0,10.77,46.58
-0.113,0.104,4.835,4.432,61.0,10.77,46.76
-0.092,0.414,4.835,4.432,61.0,10.77,46.91
-0.073,0.166,4.835,4.432,61.0,10.77,47.05
-0.13,0.104,4.834,4.431,61.0,10.77,47.17
0.171,0.083,4.833,4.43,61.0,10.77,47.29
-0.065,0.104,4.833,4.43,61.0,10.77,47.46
-0.017,0.124,4.831,4.428,81.0,10.77,47.62
0.082,0.124,4.83,4.427,81.0,10.77,47.82
0.302,0.104,4.83,4.427,81.0,10.77,48.0
0.255,0.104,4.829,4.426,81.0,10.77,48.08
-0.082,0.104,4.826,4.425,81.0,10.77,48.5
-0.105,0.104,4.826,4.425,81.0,10.77,48.53
-0.109,0.104,4.825,4.425,81.0,10.77,48.8
-0.118,0.124,4.824,4.422,81.0,10.77,49.03
-0.123,0.186,4.823,4.422,81.0,10.77,49.19
-0.114,0.477,4.821,4.422,81.0,10.77,49.36
-0.066,0.394,4.82,4.42,81.0,10.77,49.58
-0.129,0.104,4.818,4.42,81.0,10.77,49.8
-0.167,0.083,4.816,4.419,64.0,10.77,49.99
-0.133,0.124,4.813,4.418,64.0,10.77,50.21
-0.037,0.104,4.813,4.418,64.0,10.77,50.21
0.047,0.104,4.811,4.418,64.0,10.77,50.29
0.235,0.124,4.81,4.415,64.0,10.77,50.35
0.335,0.124,4.81,4.415,64.0,10.77,50.32
-0.05,0.104,4.808,4.415,64.0,10.77,50.25
-0.108,0.166,4.805,4.414,64.0,10.77,50.25
-0.107,0.124,4.804,4.413,64.0,10.77,50.29
-0.113,0.124,4.803,4.413,64.0,10.77,50.33
-0.114,0.104,4.801,4.41,64.0,10.77,50.29
-0.107,0.269,4.8,4.41,64.0,10.77,50.2
-0.054,0.352,4.798,4.41,64.0,10.77,50.15
-0.123,0.145,4.795,4.408,64.0,10.77,50.15
-0.092,0.145,4.795,4.408,64.0,10.77,50.15
0.197,0.124,4.793,4.408,64.0,10.77,50.14
-0.032,0.104,4.791,4.405,64.0,10.77,50.1
0.053,0.083,4.79,4.405,64.0,10.77,50.01
0.236,0.083,4.789,4.405,64.0,10.77,49.94
0.354,0.104,4.788,4.404,64.0,10.77,49.74
-0.036,0.124,4.785,4.403,64.0,10.77,49.53
-0.099,0.124,4.784,4.403,64.0,10.77,49.4
-0.095,0.104,4.783,4.4,64.0,10.77,49.33
-0.105,0.124,4.78,4.4,64.0,10.77,49.26
-0.111,0.104,4.778,4.4,64.0,10.77,49.09
-0.113,0.311,4.776,4.398,64.0,10.77,48.73
-0.098,0.311,4.775,4.398,64.0,10.77,48.72
-0.056,0.104,4.775,4.396,64.0,10.77,48.59
-0.124,0.145,4.774,4.395,64.0,10.77,48.45
0.014,0.124,4.773,4.395,64.0,10.77,48.29
0.107,0.104,4.773,4.395,64.0,10.77,48.11
-0.02,0.124,4.771,4.393,65.0,10.77,47.95
0.074,0.104,4.771,4.393,65.0,10.77,47.79
0.278,0.104,4.771,4.393,65.0,10.77,47.52
0.329,0.104,4.771,4.393,65.0,10.77,47.25
-0.055,0.083,4.771,4.391,65.0,10.77,47.11
-0.097,0.104,4.771,4.39,65.0,10.77,47.02
-0.091,0.124,4.771,4.39,65.0,10.77,46.99
-0.103,0.083,4.769,4.389,65.0,10.78,46.9
-0.11,0.124,4.771,4.388,65.0,10.77,46.8
-0.112,0.373,4.771,4.388,65.0,10.77,46.76
-0.108,0.311,4.771,4.388,65.0,10.77,46.74
-0.069,0.104,4.772,4.388,65.0,10.77,46.71
-0.082,0.083,4.773,4.386,65.0,10.77,46.69
0.197,0.124,4.773,4.385,65.0,10.77,46.67
0.276,0.104,4.774,4.385,65.0,10.78,46.66
-0.115,0.145,4.775,4.384,62.0,10.77,46.66
0.018,0.104,4.775,4.383,62.0,10.77,46.67
0.136,0.104,4.778,4.383,62.0,10.77,46.53
0.374,0.104,4.778,4.383,62.0,10.78,46.41
0.206,0.145,4.778,4.383,62.0,10.77,46.4
-0.076,0.124,4.78,4.381,62.0,10.78,46.41
-0.077,0.104,4.78,4.38,62.0,10.77,46.45
-0.081,0.104,4.78,4.38,62.0,10.77,46.44
-0.094,0.104,4.78,4.38,62.0,10.78,46.44
-0.098,0.352,4.78,4.38,62.0,10.78,46.48
-0.096,0.311,4.78,4.378,62.0,10.78,46.52
-0.094,0.145,4.78,4.378,62.0,10.77,46.53
-0.049,0.166,4.78,4.378,62.0,10.77,46.53
-0.075,0.083,4.78,4.378,62.0,10.77,46.54
-0.099,0.104,4.78,4.375,62.0,10.78,46.54
0.27,0.104,4.78,4.375,62.0,10.77,46.54
-0.079,0.104,4.779,4.375,62.0,10.77,46.44
0.035,0.145,4.778,4.375,62.0,10.77,46.42
0.159,0.124,4.778,4.374,62.0,10.77,46.33
0.168,0.104,4.778,4.374,62.0,10.77,46.32
-0.006,0.207,4.776,4.373,62.0,10.77,46.33
-0.072,0.124,4.775,4.373,62.0,10.77,46.44
-0.077,0.104,4.775,4.373,62.0,10.77,46.57
-0.08,0.145,4.774,4.371,62.0,10.77,46.69
-0.088,0.29,4.773,4.37,62.0,10.77,46.87
-0.089,0.331,4.771,4.369,62.0,10.77,47.31
-0.091,0.083,4.771,4.368,62.0,10.77,47.33
-0.056,0.083,4.771,4.368,62.0,10.77,47.53
-0.067,0.124,4.768,4.368,62.0,10.77,47.75
0.171,0.124,4.767,4.368,62.0,10.78,47.96
0.28,0.104,4.766,4.368,61.0,10.77,48.15
-0.101,0.104,4.766,4.366,61.0,10.77,48.37
0.026,0.145,4.763,4.365,61.0,10.78,48.48
0.141,0.104,4.762,4.365,61.0,10.77,48.56
0.377,0.124,4.761,4.363,61.0,10.77,48.71
0.198,0.083,4.761,4.363,61.0,10.77,48.93
-0.071,0.124,4.758,4.363,61.0,10.77,49.18
-0.08,0.104,4.757,4.361,61.0,10.77,49.33
-0.081,0.145,4.756,4.36,61.0,10.78,49.46
-0.091,0.456,4.753,4.36,61.0,10.78,49.63
-0.095,0.186,4.753,4.36,61.0,10.78,49.82
-0.061,0.145,4.751,4.359,61.0,10.79,50.0
-0.062,0.124,4.749,4.358,61.0,10.79,50.15
-0.106,0.104,4.748,4.358,61.0,10.79,50.26
0.186,0.145,4.748,4.355,61.0,10.79,50.35
-0.025,0.124,4.746,4.355,64.0,10.79,50.46
0.0,0.083,4.744,4.355,64.0,10.79,50.49
0.1,0.104,4.743,4.355,64.0,10.79,50.44
0.32,0.104,4.742,4.353,64.0,10.79,50.46
0.272,0.104,4.741,4.353,64.0,10.79,50.49
-0.07,0.083,4.739,4.353,64.0,10.79,50.52
-0.09,0.124,4.738,4.35,64.0,10.79,50.48
-0.087,0.373,4.737,4.35,64.0,10.79,50.38
-0.098,0.311,4.736,4.349,64.0,10.79,50.31
-0.103,0.104,4.734,4.348,64.0,10.79,50.3
-0.101,0.083,4.733,4.348,64.0,10.79,50.29
-0.041,0.124,4.731,4.348,64.0,10.79,50.26
-0.094,0.083,4.731,4.346,64.0,10.79,50.19
-0.116,0.104,4.728,4.345,68.0,10.79,50.01
0.242,0.104,4.728,4.345,68.0,10.79,50.0
-0.041,0.145,4.728,4.345,68.0,10.81,49.78
0.036,0.145,4.727,4.343,68.0,10.81,49.57
0.186,0.124,4.726,4.343,68.0,10.81,49.43
0.406,0.186,4.726,4.341,68.0,10.81,49.35
0.062,0.104,4.724,4.34,68.0,10.81,49.29
-0.094,0.104,4.723,4.34,68.0,10.81,49.14
-0.089,0.435,4.724,4.34,68.0,10.81,48.98
-0.097,0.186,4.726,4.338,68.0,10.82,48.75
-0.108,0.104,4.726,4.338,68.0,10.89,48.73
-0.111,0.124,4.726,4.338,67.0,10.95,48.61
-0.11,0.145,4.728,4.338,67.0,10.96,48.47
-0.072,0.145,4.731,4.338,67.0,10.96,48.28
-0.083,0.124,4.734,4.338,67.0,10.96,48.08
-0.122,0.083,4.738,4.335,67.0,10.96,47.91
0.274,0.104,4.742,4.336,67.0,10.96,47.61
-0.124,0.104,4.747,4.335,67.0,10.96,47.36
0.011,0.124,4.752,4.335,67.0,10.96,47.23
0.129,0.124,4.757,4.335,67.0,10.99,47.15
0.373,0.145,4.762,4.335,67.0,10.99,47.08
0.201,0.124,4.768,4.336,67.0,10.99,46.96
-0.086,0.104,4.774,4.338,67.0,10.99,46.86
-0.094,0.414,4.779,4.338,67.0,10.99,46.81
-0.095,0.186,4.785,4.338,67.0,10.99,46.77
-0.104,0.083,4.791,4.338,67.0,10.99,46.72
-0.105,0.104,4.799,4.34,67.0,10.99,46.68
-0.106,0.083,4.806,4.34,67.0,11.0,46.63
-0.099,0.186,4.814,4.343,67.0,11.01,46.6
-0.047,0.104,4.821,4.343,86.0,11.01,46.59
-0.106,0.083,4.837,4.346,86.0,11.01,46.39
-0.111,0.083,4.839,4.348,86.0,11.01,46.37
0.22,0.104,4.849,4.348,86.0,11.01,46.3
0.012,0.124,4.857,4.35,86.0,11.01,46.31
0.166,0.124,4.868,4.353,86.0,11.01,46.34
0.222,0.124,4.879,4.355,86.0,11.01,46.38
0.407,0.083,4.891,4.358,86.0,11.01,46.4
0.018,0.145,4.902,4.36,86.0,11.01,46.43
-0.09,0.456,4.914,4.363,86.0,11.01,46.49
-0.088,0.145,4.924,4.365,86.0,11.01,46.53
-0.097,0.104,4.937,4.369,86.0,11.01,46.54
-0.105,0.124,4.947,4.371,86.0,11.01,46.53
-0.108,0.104,4.959,4.374,86.0,11.01,46.53
-0.089,0.124,4.969,4.376,86.0,11.01,46.53
-0.09,0.145,4.979,4.38,62.0,11.01,46.52
-0.061,0.104,4.989,4.384,62.0,11.0,46.47
-0.119,0.104,4.998,4.386,62.0,11.01,46.38
0.145,0.104,5.006,4.389,62.0,11.01,46.51
-0.027,0.083,5.015,4.393,62.0,11.01,46.73
-0.016,0.124,5.021,4.395,62.0,11.01,46.96
0.081,0.124,5.028,4.398,62.0,11.04,47.18
0.298,0.166,5.034,4.4,62.0,11.05,47.37
0.286,0.352,5.04,4.403,62.0,11.05,47.59
-0.077,0.29,5.044,4.405,62.0,11.04,47.85
-0.108,0.083,5.047,4.408,62.0,11.04,48.09
-0.108,0.124,5.05,4.409,62.0,11.04,48.29
-0.12,0.124,5.051,4.41,62.0,11.04,48.52
-0.128,0.145,5.054,4.411,62.0,11.05,48.72
-0.131,0.145,5.054,4.414,62.0,11.04,48.92
-0.093,0.145,5.056,4.415,63.0,11.04,49.13
-0.106,0.104,5.055,4.415,63.0,11.04,49.22
-0.144,0.104,5.054,4.418,63.0,11.04,49.3
0.237,0.124,5.052,4.418,63.0,11.04,49.47
-0.143,0.124,5.05,4.418,63.0,11.02,49.69
-0.018,0.104,5.047,4.419,63.0,11.04,49.92
0.101,0.083,5.042,4.42,63.0,11.02,50.04
0.342,0.145,5.04,4.419,63.0,11.02,50.12
0.142,0.394,5.037,4.42,63.0,11.02,50.22
-0.116,0.083,5.033,4.42,63.0,11.04,50.34
-0.122,0.104,5.028,4.42,63.0,11.04,50.42
-0.125,0.104,5.023,4.419,63.0,11.02,50.47
-0.136,0.124,5.02,4.418,63.0,11.04,50.48
-0.14,0.104,5.015,4.418,63.0,11.04,50.48
-0.094,0.104,5.01,4.418,65.0,11.04,50.5
-0.117,0.104,5.005,4.418,65.0,11.02,50.4
-0.154,0.083,5.0,4.418,65.0,11.02,50.26
0.236,0.145,4.995,4.418,65.0,11.02,50.18
-0.032,0.124,4.992,4.415,65.0,11.04,50.15
-0.014,0.104,4.988,4.415,65.0,11.06,50.14
0.101,0.083,4.983,4.415,65.0,11.06,50.06
0.339,0.249,4.978,4.413,65.0,11.07,49.93
0.099,0.394,4.974,4.413,65.0,11.06,49.83
-0.127,0.124,4.97,4.413,65.0,11.07,49.78
-0.131,0.083,4.967,4.41,65.0,11.06,49.72
-0.134,0.124,4.963,4.41,65.0,11.07,49.64
-0.143,0.083,4.958,4.409,65.0,11.06,49.51
-0.116,0.083,4.955,4.408,65.0,11.06,49.38
-0.087,0.124,4.952,4.405,66.0,11.05,49.23
-0.098,0.104,4.948,4.405,66.0,11.06,48.96
-0.156,0.104,4.945,4.404,66.0,11.05,48.65
0.172,0.104,4.941,4.403,66.0,11.05,48.41
-0.087,0.145,4.938,4.401,66.0,11.06,48.26
-0.038,0.083,4.935,4.4,66.0,11.06,48.15
0.066,0.083,4.931,4.398,66.0,11.05,47.98
0.293,0.083,4.928,4.398,66.0,11.05,47.78
0.229,0.435,4.926,4.395,66.0,11.05,47.62
-0.111,0.29,4.923,4.394,66.0,11.05,47.5
-0.128,0.124,4.92,4.393,66.0,11.05,47.37
-0.126,0.124,4.917,4.391,66.0,11.05,47.23
-0.137,0.124,4.915,4.39,66.0,11.05,47.1
-0.141,0.124,4.911,4.389,63.0,11.05,46.97
-0.143,0.145,4.908,4.388,63.0,11.05,46.88
-0.131,0.124,4.906,4.385,63.0,11.05,46.79
-0.086,0.104,4.903,4.385,63.0,11.05,46.58
-0.15,0.104,4.898,4.383,63.0,11.05,46.4
-0.101,0.124,4.897,4.381,63.0,11.05,46.41
0.158,0.104,4.896,4.38,63.0,11.05,46.41
-0.05,0.104,4.893,4.379,63.0,11.05,46.44
0.231,0.104,4.891,4.378,63.0,11.05,46.43
0.238,0.145,4.888,4.375,63.0,11.05,46.42
0.351,0.456,4.886,4.375,63.0,11.04,46.46
-0.051,0.166,4.883,4.373,63.0,11.04,46.5
-0.122,0.104,4.882,4.371,63.0,11.04,46.52
-0.118,0.124,4.88,4.37,63.0,11.04,46.51
-0.129,0.124,4.877,4.369,63.0,11.04,46.54
-0.133,0.104,4.876,4.368,63.0,11.04,46.69
-0.131,0.104,4.873,4.366,64.0,11.04,46.88
-0.128,0.124,4.872,4.365,64.0,11.04,46.93
-0.076,0.104,4.87,4.364,64.0,11.04,46.88
-0.111,0.104,4.867,4.363,64.0,11.04,46.95
-0.135,0.166,4.866,4.363,64.0,11.04,47.12
0.226,0.124,4.863,4.36,64.0,11.04,47.36
-0.087,0.124,4.862,4.359,64.0,11.04,47.59
0.015,0.145,4.86,4.358,64.0,11.04,47.8
0.152,0.373,4.859,4.356,64.0,11.04,48.05
0.393,0.186,4.856,4.355,64.0,11.04,48.34
0.111,0.124,4.855,4.354,64.0,11.04,48.61
-0.099,0.145,4.853,4.353,64.0,11.04,48.86
-0.095,0.104,4.85,4.353,64.0,11.04,49.09
-0.1,0.145,4.849,4.35,64.0,11.04,49.32
-0.109,0.124,4.848,4.35,65.0,11.04,49.57
-0.111,0.104,4.845,4.348,65.0,11.02,49.74
-0.11,0.145,4.844,4.348,65.0,11.02,49.8
-0.066,0.104,4.841,4.345,65.0,11.04,49.92
-0.083,0.083,4.84,4.345,65.0,11.04,50.13
-0.115,0.124,4.838,4.343,65.0,11.02,50.32
0.27,0.104,4.835,4.343,65.0,11.02,50.4
-0.107,0.331,4.835,4.343,65.0,11.04,50.36
0.021,0.269,4.833,4.34,65.0,11.04,50.34
0.141,0.104,4.831,4.34,65.0,11.04,50.34
0.387,0.186,4.83,4.339,65.0,11.02,50.33
0.184,0.124,4.828,4.338,65.0,11.04,50.3
-0.077,0.124,4.826,4.338,65.0,11.04,50.21
-0.08,0.124,4.825,4.335,69.0,11.04,50.11
-0.083,0.104,4.823,4.335,69.0,11.04,49.99
-0.093,0.062,4.823,4.334,69.0,11.02,49.75
-0.095,0.104,4.82,4.333,69.0,11.02,49.52
-0.088,0.104,4.819,4.332,69.0,11.04,49.36
-0.036,0.104,4.818,4.331,69.0,11.04,49.22
-0.09,0.124,4.816,4.331,69.0,11.04,49.11
-0.098,0.124,4.815,4.328,69.0,11.04,48.9
0.238,0.456,4.814,4.328,69.0,11.02,48.68
-0.009,0.124,4.813,4.328,69.0,11.04,48.48
0.067,0.145,4.811,4.327,69.0,11.04,48.31
0.234,0.104,4.81,4.326,69.0,11.02,48.15
0.411,0.145,4.809,4.324,69.0,11.02,47.98
0.029,0.124,4.808,4.323,69.0,11.02,47.8
-0.069,0.124,4.806,4.323,69.0,11.02,47.64
-0.068,0.124,4.805,4.321,69.0,11.02,47.42
-0.076,0.124,4.805,4.321,69.0,11.02,47.12
-0.084,0.124,4.803,4.321,69.0,11.02,46.94
-0.089,0.083,4.801,4.318,69.0,11.02,46.85
-0.047,0.145,4.8,4.318,69.0,11.02,46.81
-0.061,0.104,4.8,4.318,69.0,11.02,46.75
-0.093,0.145,4.798,4.316,69.0,11.02,46.68
0.306,0.414,4.798,4.316,69.0,11.02,46.66
-0.087,0.29,4.798,4.314,69.0,11.02,46.68
0.038,0.124,4.798,4.313,69.0,11.04,46.68
0.163,0.083,4.798,4.313,69.0,11.02,46.66
0.405,0.104,4.801,4.313,69.0,11.02,46.65
0.203,0.104,4.803,4.313,69.0,11.02,46.64
-0.055,0.104,4.806,4.313,63.0,11.02,46.64
-0.06,0.083,4.811,4.313,63.0,11.02,46.62
-0.063,0.104,4.816,4.311,63.0,11.02,46.49
-0.075,0.124,4.822,4.312,63.0,11.02,46.38
-0.079,0.145,4.83,4.313,63.0,11.02,46.38
-0.081,0.104,4.837,4.313,63.0,11.02,46.4
-0.053,0.124,4.844,4.312,63.0,11.02,46.45
-0.046,0.083,4.852,4.312,63.0,11.02,46.46
-0.097,0.124,4.86,4.313,63.0,11.02,46.47
0.287,0.394,4.867,4.312,63.0,11.02,46.52
-0.092,0.249,4.876,4.313,63.0,11.02,46.57
0.024,0.124,4.883,4.313,63.0,11.02,46.58
0.133,0.083,4.891,4.313,63.0,11.02,46.58
0.199,0.124,4.897,4.312,63.0,11.02,46.67
0.068,0.124,4.903,4.313,63.0,11.02,46.87
-0.053,0.104,4.911,4.313,62.0,11.02,47.11
-0.066,0.083,4.916,4.313,62.0,11.02,47.35
-0.069,0.083,4.921,4.312,62.0,11.02,47.46
-0.082,0.145,4.926,4.313,62.0,11.02,47.65
-0.088,0.145,4.931,4.313,62.0,11.02,47.92
-0.087,0.124,4.933,4.313,62.0,11.02,48.21
-0.057,0.124,4.937,4.313,62.0,11.02,48.48
-0.054,0.124,4.941,4.312,62.0,11.02,48.67
-0.103,0.186,4.943,4.312,62.0,11.02,48.87
0.28,0.394,4.945,4.311,62.0,11.02,49.14
-0.109,0.166,4.947,4.311,62.0,11.02,49.41
0.018,0.104,4.947,4.311,62.0,11.02,49.64
0.128,0.104,4.948,4.311,62.0,11.02,49.85
0.367,0.104,4.947,4.311,62.0,11.02,50.04
0.249,0.145,4.947,4.311,62.0,11.02,50.23
-0.07,0.083,4.947,4.311,64.0,11.02,50.41
-0.084,0.104,4.946,4.311,64.0,11.02,50.49
-0.086,0.104,4.943,4.311,64.0,11.02,50.53
-0.095,0.083,4.942,4.309,64.0,11.02,50.59
-0.099,0.124,4.938,4.308,64.0,11.02,50.66
-0.095,0.083,4.936,4.308,64.0,11.02,50.7
-0.037,0.104,4.932,4.308,64.0,11.02,50.64
-0.086,0.394,4.928,4.307,64.0,11.02,50.51
-0.104,0.207,4.926,4.306,64.0,11.02,50.45
0.25,0.104,4.921,4.306,64.0,11.02,50.42
-0.025,0.104,4.918,4.306,64.0,11.02,50.4
0.06,0.124,4.915,4.306,64.0,11.02,50.34
0.209,0.124,4.911,4.304,64.0,11.02,50.23
0.431,0.166,4.906,4.303,68.0,11.02,50.15
0.097,0.145,4.903,4.303,68.0,11.02,50.02
-0.063,0.166,4.896,4.301,68.0,11.02,49.57
-0.065,0.104,4.896,4.302,68.0,11.02,49.54
-0.075,0.145,4.893,4.301,68.0,11.02,49.4
-0.082,0.104,4.89,4.301,68.0,11.02,49.29
-0.076,0.104,4.886,4.299,68.0,11.02,49.15
-0.024,0.145,4.882,4.298,68.0,11.02,48.91
-0.093,0.435,4.88,4.298,68.0,11.02,48.68
-0.091,0.124,4.876,4.296,68.0,11.02,48.48
0.239,0.104,4.873,4.297,68.0,11.02,48.3
-0.009,0.145,4.871,4.296,68.0,11.02,48.11
0.071,0.104,4.867,4.294,68.0,11.02,47.91
0.246,0.145,4.865,4.293,68.0,11.02,47.7
0.401,0.104,4.862,4.293,68.0,11.02,47.52
0.014,0.083,4.861,4.293,68.0,11.02,47.28
-0.073,0.104,4.86,4.291,68.0,11.02,46.99
-0.069,0.083,4.86,4.291,68.0,11.02,46.82
-0.084,0.104,4.86,4.291,68.0,11.02,46.75
-0.092,0.104,4.861,4.291,68.0,11.04,46.72
-0.081,0.145,4.865,4.291,68.0,11.02,46.68
-0.035,0.104,4.869,4.292,68.0,11.02,46.63
-0.106,0.435,4.876,4.293,68.0,11.04,46.63
-0.044,0.269,4.884,4.294,68.0,11.04,46.66
0.178,0.104,4.896,4.297,68.0,11.02,46.68
-0.014,0.104,4.908,4.299,89.0,11.02,46.67
0.073,0.124,4.923,4.302,89.0,11.02,46.67
0.271,0.104,4.94,4.307,89.0,11.02,46.66
0.36,0.124,4.957,4.312,89.0,11.02,46.65
-0.033,0.124,4.977,4.318,89.0,11.02,46.68
-0.09,0.124,4.997,4.325,89.0,11.02,46.78
-0.087,0.104,5.017,4.333,89.0,11.02,47.02
-0.1,0.083,5.036,4.342,89.0,11.02,47.35
-0.109,0.124,5.056,4.35,89.0,11.02,47.69
-0.11,0.145,5.076,4.357,89.0,11.02,48.0
-0.101,0.145,5.096,4.365,89.0,11.02,48.21
-0.051,0.352,5.116,4.374,89.0,11.02,48.39
-0.12,0.29,5.136,4.382,89.0,11.02,48.59
-0.055,0.124,5.156,4.39,89.0,11.02,48.8
0.162,0.104,5.176,4.399,91.0,11.02,49.02
-0.022,0.104,5.194,4.407,91.0,11.02,49.22
0.064,0.166,5.211,4.415,91.0,11.02,49.37
0.257,0.104,5.229,4.423,91.0,11.02,49.54
0.368,0.104,5.248,4.431,91.0,11.04,49.73
-0.033,0.104,5.266,4.438,91.0,11.02,49.78
-0.096,0.104,5.281,4.446,91.0,11.02,49.84
-0.092,0.104,5.292,4.452,91.0,11.02,50.01
-0.102,0.104,5.305,4.459,91.0,11.04,50.2
-0.107,0.145,5.314,4.466,91.0,11.02,50.39
-0.107,0.104,5.324,4.473,91.0,11.04,50.44
-0.105,0.331,5.333,4.478,91.0,11.04,50.45
-0.049,0.207,5.339,4.483,91.0,11.04,50.47
-0.09,0.124,5.343,4.488,91.0,11.02,50.5
-0.114,0.104,5.347,4.493,95.0,11.04,50.52
0.231,0.104,5.35,4.498,95.0,11.02,50.51
-0.045,0.083,5.35,4.503,95.0,11.02,50.47
0.039,0.104,5.35,4.507,95.0,11.02,50.41
0.186,0.124,5.348,4.51,95.0,11.02,50.29
0.42,0.145,5.346,4.513,95.0,11.02,50.07
0.108,0.124,5.341,4.518,95.0,11.02,49.9
-0.077,0.124,5.336,4.52,95.0,11.02,49.79
-0.075,0.145,5.331,4.523,95.0,11.02,49.72
-0.085,0.124,5.326,4.527,95.0,11.02,49.61
-0.097,0.394,5.318,4.53,95.0,11.02,49.4
-0.102,0.311,5.313,4.533,95.0,11.02,49.21
-0.102,0.145,5.308,4.538,95.0,11.02,49.05
-0.052,0.124,5.301,4.542,99.0,11.04,48.9
-0.103,0.145,5.295,4.545,99.0,11.04,48.74
-0.125,0.083,5.289,4.547,99.0,11.04,48.52
0.23,0.124,5.281,4.549,99.0,11.04,48.3
-0.048,0.124,5.275,4.549,99.0,11.02,48.1
0.033,0.124,5.269,4.549,99.0,11.04,47.78
0.18,0.083,5.261,4.549,99.0,11.02,47.47
0.4,0.124,5.254,4.548,99.0,11.02,47.27
0.062,0.145,5.246,4.547,99.0,11.02,47.15
-0.093,0.104,5.24,4.547,99.0,11.02,47.07
-0.091,0.145,5.234,4.545,99.0,11.04,46.94
-0.101,0.352,5.226,4.544,99.0,11.02,46.84
-0.112,0.331,5.221,4.544,99.0,11.02,46.81
-0.109,0.166,5.214,4.542,99.0,11.04,46.79
-0.056,0.124,5.209,4.54,99.0,11.04,46.77
-0.119,0.104,5.207,4.539,99.0,11.02,46.75
-0.126,0.124,5.203,4.537,99.0,11.04,46.71
0.224,0.145,5.202,4.534,93.0,11.04,46.68
-0.036,0.104,5.203,4.534,93.0,11.04,46.68
0.041,0.124,5.204,4.533,93.0,11.02,46.57
0.37,0.124,5.209,4.532,93.0,11.04,46.45
0.37,0.104,5.215,4.532,93.0,11.04,46.43
0.001,0.145,5.224,4.532,93.0,11.02,46.44
-0.097,0.166,5.235,4.532,93.0,11.04,46.49
-0.092,0.124,5.247,4.532,93.0,11.02,46.54
-0.108,0.166,5.261,4.534,93.0,11.04,46.59
-0.117,0.394,5.276,4.537,93.0,11.02,46.67
-0.118,0.124,5.293,4.538,93.0,11.02,46.73
-0.058,0.124,5.31,4.54,93.0,11.02,46.76
-0.128,0.145,5.327,4.542,93.0,11.04,46.77
-0.146,0.145,5.343,4.544,93.0,11.02,46.76
0.205,0.083,5.361,4.547,93.0,11.02,46.74
-0.056,0.124,5.376,4.549,65.0,11.02,46.73
0.015,0.124,5.393,4.552,65.0,11.04,46.63
0.179,0.166,5.408,4.554,65.0,11.04,46.49
0.363,0.104,5.421,4.557,65.0,11.02,46.45
-0.017,0.083,5.435,4.56,65.0,11.04,46.47
-0.127,0.083,5.449,4.563,65.0,11.04,46.5
-0.127,0.104,5.461,4.567,65.0,11.04,46.53
-0.139,0.124,5.471,4.569,65.0,11.02,46.56
-0.146,0.435,5.479,4.572,65.0,11.04,46.73
-0.15,0.166,5.487,4.574,65.0,11.02,47.0
-0.146,0.145,5.492,4.577,65.0,11.04,47.23
-0.088,0.145,5.497,4.578,65.0,11.02,47.4
-0.156,0.166,5.502,4.579,65.0,11.02,47.58
-0.158,0.104,5.505,4.579,65.0,11.02,47.8
0.169,0.124,5.506,4.58,64.0,11.02,48.04
-0.066,0.104,5.506,4.58,64.0,11.02,48.24
0.01,0.104,5.504,4.582,64.0,11.02,48.32
0.181,0.124,5.502,4.582,64.0,11.02,48.47
0.359,0.124,5.499,4.582,64.0,11.02,48.7
-0.026,0.124,5.495,4.58,64.0,11.02,48.98
-0.131,0.124,5.488,4.579,64.0,11.02,49.2
-0.129,0.104,5.482,4.579,64.0,11.02,49.38
-0.14,0.414,5.476,4.579,64.0,11.02,49.56
-0.144,0.186,5.469,4.578,64.0,11.04,49.81
-0.144,0.145,5.461,4.577,64.0,11.04,50.04
-0.12,0.104,5.454,4.575,64.0,11.02,50.25
-0.091,0.124,5.445,4.574,64.0,11.02,50.43
-0.148,0.104,5.438,4.573,64.0,11.02,50.61
0.137,0.145,5.429,4.572,66.0,11.02,50.77
-0.066,0.124,5.421,4.57,66.0,11.02,50.83
-0.042,0.124,5.414,4.569,66.0,11.02,50.78
0.056,0.124,5.404,4.567,66.0,11.04,50.79
0.272,0.083,5.396,4.565,66.0,11.04,50.84
0.242,0.145,5.388,4.564,66.0,11.02,50.91
-0.105,0.124,5.381,4.562,66.0,11.02,50.9
-0.132,0.394,5.372,4.559,66.0,11.02,50.83
-0.137,0.228,5.364,4.557,66.0,11.02,50.78
-0.152,0.104,5.357,4.554,66.0,11.02,50.78
-0.161,0.124,5.349,4.552,66.0,11.04,50.79
-0.15,0.104,5.342,4.549,66.0,11.04,50.8
-0.105,0.124,5.334,4.547,66.0,11.02,50.77
-0.17,0.104,5.327,4.543,70.0,11.02,50.72
-0.079,0.124,5.321,4.54,70.0,11.02,50.64
0.098,0.124,5.313,4.537,70.0,11.04,50.43
-0.069,0.145,5.307,4.534,70.0,11.02,50.28
0.021,0.124,5.301,4.532,70.0,11.04,50.21
0.217,0.124,5.294,4.528,70.0,11.02,50.17
0.298,0.104,5.289,4.525,70.0,11.02,50.1
-0.077,0.373,5.284,4.522,70.0,11.02,49.92
-0.122,0.29,5.276,4.518,70.0,11.04,49.75
-0.12,0.104,5.271,4.515,70.0,11.02,49.62
-0.135,0.145,5.266,4.513,70.0,11.04,49.5
-0.142,0.124,5.261,4.509,70.0,11.02,49.36
-0.12,0.124,5.256,4.507,70.0,11.04,49.18
-0.101,0.145,5.251,4.503,70.0,11.04,48.98
-0.163,0.166,5.246,4.501,70.0,11.02,48.78
0.189,0.104,5.241,4.498,70.0,11.04,48.41
