ECG,EMG,foot GSR,hand GSR,HR,marker,RESP
-0.009,0.497,17.997,17.997,70.0,15.86,50.0
-0.026,0.104,18.026,18.019,70.0,10.22,50.04
0.219,0.435,17.982,17.984,70.0,10.17,49.98
0.159,0.373,17.896,17.925,70.0,10.15,49.88
0.065,0.083,17.923,17.972,70.0,10.19,49.9
0.169,0.083,6.78,9.455,70.0,10.19,36.24
0.344,0.104,6.163,8.959,70.0,10.17,35.51
0.238,0.083,5.955,8.829,70.0,10.18,35.24
0.109,0.104,5.855,8.796,70.0,10.18,35.2
0.096,0.166,5.802,8.81,70.0,10.17,35.29
0.053,0.124,5.742,8.8,70.0,10.18,35.33
0.0,0.145,5.71,8.79,70.0,10.18,35.31
-0.039,0.124,5.676,8.78,70.0,10.17,35.23
-0.064,0.145,5.667,8.769,70.0,10.17,35.09
-0.061,0.186,5.651,8.756,70.0,10.17,34.98
-0.158,0.207,5.622,8.743,70.0,10.17,34.86
0.259,0.477,5.588,8.732,70.0,10.17,34.8
-0.155,0.124,5.554,8.719,70.0,10.17,34.8
-0.127,0.166,5.516,8.708,70.0,10.17,34.9
-0.003,0.186,5.497,8.698,69.0,10.17,35.03
0.0,0.166,5.479,8.685,69.0,10.17,35.2
-0.194,0.145,5.46,8.675,69.0,10.17,35.43
-0.206,0.145,5.439,8.663,69.0,10.17,35.63
-0.204,0.124,5.432,8.653,69.0,10.17,35.75
-0.211,0.186,5.424,8.642,69.0,10.17,35.88
-0.18,0.166,5.414,8.631,69.0,10.17,36.12
-0.244,0.124,5.406,8.62,69.0,10.17,36.32
-0.207,0.331,5.398,8.608,69.0,10.17,36.48
-0.21,0.186,5.389,8.598,69.0,10.17,36.59
-0.171,0.166,5.383,8.588,69.0,10.17,36.64
-0.043,0.124,5.378,8.578,69.0,10.17,36.66
-0.006,0.104,5.373,8.569,69.0,10.17,36.66
-0.203,0.104,5.364,8.559,69.0,10.17,36.59
-0.21,0.124,5.363,8.559,69.0,10.17,36.59
-0.197,0.124,5.354,8.561,69.0,10.17,36.51
-0.205,0.124,5.347,8.577,69.0,10.17,36.41
-0.165,0.104,5.342,8.609,69.0,10.17,36.34
-0.219,0.145,5.334,8.657,69.0,10.17,36.28
0.195,0.456,5.328,8.722,69.0,10.17,36.22
-0.19,0.186,5.327,8.805,69.0,10.17,36.15
-0.147,0.124,5.325,8.903,69.0,10.17,36.09
-0.026,0.124,5.327,9.018,69.0,10.17,36.03
0.05,0.145,5.332,9.144,69.0,10.17,35.98
-0.149,0.104,5.339,9.284,69.0,10.17,35.92
-0.164,0.124,5.351,9.431,69.0,10.17,35.85
-0.155,0.104,5.367,9.583,69.0,10.17,35.78
-0.169,0.124,5.391,9.742,69.0,10.17,35.66
-0.172,0.145,5.416,9.914,69.0,10.17,35.59
-0.138,0.145,5.445,10.08,69.0,10.17,35.55
-0.205,0.124,5.481,10.234,69.0,10.17,35.53
0.23,0.518,5.521,10.388,69.0,10.17,35.52
-0.181,0.124,5.562,10.544,69.0,10.17,35.49
-0.144,0.124,5.608,10.687,69.0,10.16,35.49
-0.017,0.104,5.654,10.807,77.0,10.17,35.49
0.029,0.104,5.704,10.919,77.0,10.17,35.49
-0.164,0.124,5.755,11.014,77.0,10.17,35.49
-0.173,0.145,5.808,11.083,77.0,10.17,35.49
-0.167,0.104,5.856,11.14,77.0,10.17,35.47
-0.181,0.145,5.906,11.195,77.0,10.17,35.43
-0.188,0.166,5.953,11.24,77.0,10.17,35.4
-0.188,0.124,6.002,11.27,77.0,10.17,35.37
-0.157,0.104,6.043,11.276,77.0,10.16,35.36
-0.17,0.104,6.083,11.267,77.0,10.16,35.36
0.045,0.394,6.121,11.246,77.0,10.17,35.36
0.005,0.373,6.156,11.212,77.0,10.16,35.36
-0.158,0.083,6.187,11.17,77.0,10.17,35.36
-0.087,0.083,6.214,11.115,68.0,10.16,35.36
0.079,0.083,6.241,11.056,68.0,10.16,35.36
-0.036,0.145,6.262,10.991,68.0,10.16,35.36
-0.146,0.166,6.28,10.924,68.0,10.16,35.36
-0.143,0.124,6.296,10.861,68.0,10.16,35.36
-0.157,0.104,6.308,10.789,68.0,10.17,35.36
-0.189,0.145,6.315,10.716,68.0,10.16,35.33
-0.217,0.124,6.32,10.644,68.0,10.16,35.31
-0.249,0.124,6.324,10.575,68.0,10.16,35.31
-0.289,0.124,6.323,10.509,68.0,10.16,35.31
-0.316,0.124,6.318,10.451,68.0,10.16,35.31
-0.367,0.124,6.309,10.39,68.0,10.16,35.31
-0.32,0.394,6.295,10.332,68.0,10.16,35.31
-0.232,0.311,6.284,10.281,68.0,10.16,35.31
-0.558,0.145,6.273,10.234,68.0,10.16,35.31
-0.556,0.207,6.261,10.196,68.0,10.16,35.31
-0.449,0.145,6.242,10.162,62.0,10.16,35.3
-0.583,0.746,6.221,10.14,62.0,10.16,35.3
-0.769,2.155,6.201,10.129,62.0,10.16,35.31
-0.856,2.051,6.18,10.11,62.0,10.16,35.3
-0.91,0.518,6.159,10.104,62.0,10.16,35.3
-0.966,3.771,6.136,10.103,62.0,10.16,35.26
-1.003,0.787,6.113,10.053,62.0,10.16,35.21
-1.032,0.974,6.092,9.968,62.0,10.16,35.26
-1.028,1.367,6.072,9.889,62.0,10.16,35.69
-1.082,1.202,6.057,9.827,62.0,10.16,36.08
-0.751,2.507,6.039,9.768,62.0,10.16,36.38
-1.118,1.388,6.023,9.723,62.0,10.16,36.65
-1.134,1.057,6.007,9.68,62.0,10.16,36.85
-1.067,1.823,5.995,9.623,67.0,10.16,37.12
-0.91,0.891,5.981,9.558,67.0,10.16,37.31
-1.088,1.015,5.967,9.492,67.0,10.16,37.45
-1.195,0.787,5.952,9.434,67.0,10.16,37.64
-1.174,1.243,5.937,9.38,67.0,10.17,37.77
-1.178,1.243,5.922,9.332,67.0,10.16,37.8
-1.173,1.761,5.908,9.301,67.0,10.16,37.83
-1.143,0.932,5.89,9.298,67.0,10.17,37.87
-1.197,1.512,5.875,9.32,67.0,10.19,37.9
-0.758,0.622,5.86,9.323,67.0,10.21,37.9
-1.128,0.704,5.845,9.31,67.0,10.18,37.84
-1.052,1.098,5.83,9.28,67.0,10.16,37.73
-0.882,0.932,5.816,9.227,80.0,10.13,37.66
-0.824,0.787,5.799,9.135,80.0,10.13,37.57
-0.995,0.849,5.787,9.029,80.0,10.13,37.46
-0.972,0.849,5.776,8.951,80.0,10.13,37.35
-0.921,1.222,5.762,8.944,80.0,10.13,37.2
-0.901,1.222,5.749,9.009,80.0,10.13,37.0
-0.873,1.243,5.736,9.087,80.0,10.13,36.91
-0.827,0.497,5.721,9.098,80.0,10.15,36.87
-0.769,0.932,5.709,9.116,80.0,10.15,36.88
-0.694,1.305,5.696,9.112,80.0,10.15,36.93
-0.627,0.518,5.681,9.103,80.0,10.15,36.98
-0.499,0.808,5.67,9.097,80.0,10.15,37.03
-0.184,0.849,5.659,9.073,80.0,10.16,37.04
-0.485,0.684,5.648,9.046,80.0,10.16,37.04
-0.387,0.414,5.635,9.014,80.0,10.16,37.0
-0.192,0.87,5.623,8.987,63.0,10.16,36.86
-0.229,0.186,5.612,8.98,63.0,10.16,36.79
-0.37,0.704,5.599,8.976,63.0,10.16,36.77
-0.361,0.373,5.588,8.966,63.0,10.16,36.75
-0.342,0.145,5.575,8.955,63.0,10.15,36.68
-0.339,0.539,5.566,8.941,63.0,10.15,36.59
-0.327,0.269,5.555,8.928,63.0,10.16,36.53
-0.314,0.435,5.542,8.913,63.0,10.16,36.46
-0.302,0.228,5.531,8.898,63.0,10.16,36.37
-0.259,0.29,5.521,8.883,63.0,10.16,36.32
-0.265,0.249,5.51,8.868,63.0,10.16,36.28
0.027,0.373,5.498,8.852,63.0,10.15,36.25
-0.164,0.456,5.488,8.838,63.0,10.15,36.21
-0.262,0.186,5.479,8.824,63.0,10.15,36.18
-0.192,0.29,5.47,8.808,63.0,10.15,36.14
-0.019,0.207,5.461,8.791,63.0,10.15,36.12
-0.143,0.373,5.451,8.776,63.0,10.15,36.14
-0.261,0.145,5.445,8.764,63.0,10.15,36.18
-0.243,0.435,5.436,8.749,63.0,10.15,36.26
-0.224,0.269,5.428,8.734,63.0,10.15,36.35
-0.217,0.186,5.418,8.72,63.0,10.15,36.48
-0.171,0.207,5.409,8.707,63.0,10.15,36.62
-0.191,0.207,5.399,8.694,63.0,10.15,36.77
0.185,0.477,5.391,8.679,63.0,10.15,36.93
-0.153,0.228,5.383,8.667,63.0,10.15,37.04
-0.118,0.166,5.377,8.653,63.0,10.15,37.14
-0.016,0.249,5.369,8.641,63.0,10.15,37.26
0.156,0.331,5.362,8.627,63.0,10.15,37.35
-0.019,0.207,5.354,8.612,63.0,10.15,37.41
-0.088,0.124,5.346,8.6,63.0,10.15,37.44
-0.058,0.207,5.338,8.586,63.0,10.15,37.47
-0.05,0.145,5.332,8.572,63.0,10.15,37.49
-0.004,0.124,5.324,8.559,63.0,10.15,37.48
-0.042,0.104,5.317,8.546,63.0,10.15,37.47
0.373,0.394,5.307,8.534,63.0,10.15,37.45
-0.025,0.104,5.3,8.521,63.0,10.15,37.42
0.029,0.145,5.292,8.51,63.0,10.15,37.39
0.14,0.145,5.284,8.499,63.0,10.13,37.34
0.295,0.104,5.275,8.486,63.0,10.13,37.31
0.088,0.104,5.266,8.474,63.0,10.13,37.28
0.055,0.104,5.257,8.462,63.0,10.15,37.25
0.086,0.104,5.251,8.451,63.0,10.13,37.2
0.098,0.124,5.244,8.438,63.0,10.15,37.11
0.112,0.145,5.237,8.426,63.0,10.13,37.03
0.173,0.186,5.231,8.414,63.0,10.13,36.97
0.15,0.145,5.228,8.403,63.0,10.13,36.9
0.602,0.414,5.226,8.392,63.0,10.15,36.85
0.247,0.207,5.234,8.38,63.0,10.15,36.78
0.283,0.124,5.241,8.37,63.0,10.13,36.69
0.378,0.124,5.243,8.359,63.0,10.13,36.58
0.536,0.104,5.239,8.346,63.0,10.15,36.46
0.343,0.124,5.24,8.335,63.0,10.13,36.35
0.304,0.145,5.259,8.314,63.0,10.13,36.16
0.322,0.104,5.261,8.312,63.0,10.15,36.15
0.319,0.124,5.269,8.303,63.0,10.15,36.02
0.309,0.083,5.274,8.292,63.0,10.15,35.95
0.31,0.124,5.279,8.28,63.0,10.15,35.89
0.314,0.186,5.275,8.27,63.0,10.15,35.86
0.315,0.104,5.275,8.26,63.0,10.15,35.84
0.316,0.145,5.279,8.25,63.0,10.15,35.84
0.314,0.083,5.289,8.24,63.0,10.15,35.83
0.357,0.166,5.295,8.232,63.0,10.15,35.83
0.321,0.104,5.3,8.223,63.0,10.15,35.82
0.748,0.497,5.299,8.213,63.0,10.15,35.82
0.332,0.145,5.294,8.203,63.0,10.15,35.82
0.356,0.104,5.286,8.193,63.0,10.15,35.82
0.446,0.145,5.28,8.183,63.0,10.15,35.82
0.599,0.145,5.274,8.173,63.0,10.15,35.82
0.411,0.145,5.271,8.162,63.0,10.15,35.82
0.35,0.145,5.268,8.151,63.0,10.15,35.82
0.357,0.104,5.266,8.141,63.0,10.15,35.81
0.347,0.124,5.265,8.132,63.0,10.15,35.82
0.332,0.145,5.265,8.124,63.0,10.15,35.79
0.323,0.124,5.261,8.114,63.0,10.15,35.78
0.319,0.124,5.256,8.105,63.0,10.15,35.77
0.322,0.104,5.253,8.096,63.0,10.15,35.76
0.351,0.124,5.261,8.086,63.0,10.15,35.76
0.366,0.124,5.271,8.078,63.0,10.15,35.76
0.339,0.124,5.276,8.069,63.0,10.15,35.76
0.539,0.331,5.278,8.059,63.0,10.13,35.75
0.504,0.352,5.273,8.051,63.0,10.15,35.75
0.321,0.104,5.27,8.035,63.0,10.15,35.75
0.381,0.124,5.27,8.035,63.0,10.13,35.75
0.533,0.145,5.27,8.028,63.0,10.13,35.75
0.439,0.124,5.268,8.021,63.0,10.13,35.75
0.273,0.104,5.265,8.013,63.0,10.13,35.75
0.254,0.166,5.257,8.007,63.0,10.15,35.73
0.222,0.145,5.249,8.001,63.0,10.13,35.75
0.184,0.145,5.244,7.993,63.0,10.13,35.72
0.159,0.145,5.236,7.988,63.0,10.15,35.69
0.149,0.166,5.235,7.982,63.0,10.13,35.7
0.131,0.145,5.234,7.976,63.0,10.13,35.77
0.142,0.145,5.226,7.971,63.0,10.13,35.88
0.15,0.166,5.221,7.963,63.0,10.13,36.0
0.183,0.29,5.214,7.958,63.0,10.13,36.11
0.424,0.373,5.214,7.951,63.0,10.15,36.27
0.126,0.124,5.221,7.944,63.0,10.13,36.42
0.179,0.104,5.22,7.937,63.0,10.13,36.56
0.342,0.166,5.208,7.929,63.0,10.13,36.68
0.309,0.124,5.2,7.921,63.0,10.13,36.8
0.129,0.145,5.19,7.914,63.0,10.13,36.91
0.126,0.166,5.184,7.906,63.0,10.13,37.01
0.127,0.124,5.181,7.9,63.0,10.13,37.08
0.114,0.124,5.173,7.891,63.0,10.13,37.12
0.136,0.145,5.16,7.884,63.0,10.13,37.13
0.13,0.166,5.152,7.876,63.0,10.13,37.14
0.24,0.311,5.149,7.87,63.0,10.13,37.15
0.371,0.29,5.146,7.863,63.0,10.13,37.14
0.139,0.124,5.142,7.854,63.0,10.13,37.11
0.205,0.145,5.139,7.845,63.0,10.13,37.07
0.385,0.145,5.136,7.838,63.0,10.13,37.04
0.305,0.145,5.132,7.828,63.0,10.13,36.99
0.165,0.104,5.127,7.82,63.0,10.13,36.94
0.182,0.145,5.122,7.81,63.0,10.13,36.85
0.204,0.124,5.116,7.8,63.0,10.13,36.73
0.205,0.145,5.108,7.793,63.0,10.13,36.6
0.224,0.145,5.102,7.783,63.0,10.13,36.48
0.278,0.145,5.097,7.776,63.0,10.13,36.37
0.232,0.207,5.092,7.768,63.0,10.13,36.3
0.663,0.559,5.087,7.76,63.0,10.13,36.21
0.247,0.186,5.082,7.751,63.0,10.13,36.12
0.28,0.124,5.077,7.742,63.0,10.13,36.05
0.386,0.124,5.072,7.735,63.0,10.13,36.02
0.508,0.104,5.067,7.726,63.0,10.13,36.0
0.291,0.145,5.061,7.718,63.0,10.13,35.98
0.253,0.124,5.057,7.71,63.0,10.13,35.96
0.257,0.166,5.052,7.702,63.0,10.13,35.93
0.247,0.124,5.047,7.696,63.0,10.13,35.88
0.232,0.083,5.041,7.69,63.0,10.13,35.83
0.226,0.104,5.035,7.683,63.0,10.13,35.82
0.23,0.104,5.03,7.676,63.0,10.13,35.81
0.225,0.124,5.025,7.67,63.0,10.13,35.8
0.24,0.104,5.02,7.663,63.0,10.13,35.8
0.251,0.124,5.015,7.655,63.0,10.13,35.8
0.291,0.311,5.01,7.649,63.0,10.13,35.79
0.566,0.394,5.008,7.643,63.0,10.13,35.78
0.223,0.083,5.0,7.638,63.0,10.13,35.78
0.276,0.145,4.995,7.63,63.0,10.13,35.78
0.426,0.124,4.99,7.624,63.0,10.13,35.78
0.403,0.104,4.984,7.618,63.0,10.13,35.78
0.224,0.124,4.978,7.613,63.0,10.12,35.78
0.221,0.145,4.973,7.605,63.0,10.12,35.77
0.219,0.124,4.968,7.6,63.0,10.12,35.79
0.199,0.083,4.961,7.594,63.0,10.12,35.79
0.192,0.124,4.954,7.577,63.0,10.12,35.78
0.188,0.104,4.948,7.547,63.0,10.12,35.77
0.184,0.104,4.943,7.531,63.0,10.12,35.76
0.184,0.104,4.938,7.523,63.0,10.12,35.76
0.183,0.166,4.931,7.521,63.0,10.12,35.76
0.223,0.124,4.924,7.514,63.0,10.12,35.76
0.181,0.124,4.918,7.507,63.0,10.12,35.76
0.592,0.497,4.913,7.501,63.0,10.12,35.76
0.164,0.145,4.907,7.496,63.0,10.12,35.76
0.18,0.145,4.901,7.489,63.0,10.12,35.76
0.247,0.166,4.896,7.484,63.0,10.12,35.76
0.4,0.124,4.891,7.476,63.0,10.12,35.75
0.153,0.104,4.886,7.47,63.0,10.12,35.75
0.1,0.104,4.881,7.464,63.0,10.12,35.75
0.1,0.124,4.878,7.459,63.0,10.12,35.75
0.084,0.124,4.872,7.452,63.0,10.12,35.76
0.062,0.145,4.862,7.446,63.0,10.12,35.79
0.059,0.166,4.851,7.435,63.0,10.12,35.96
0.101,0.166,4.85,7.435,63.0,10.11,35.98
0.042,0.166,4.846,7.429,63.0,10.12,36.08
0.43,0.456,4.841,7.424,63.0,10.11,36.18
0.051,0.166,4.836,7.417,63.0,10.12,36.29
0.091,0.166,4.833,7.41,63.0,10.12,36.38
0.203,0.124,4.83,7.404,72.0,10.12,36.48
0.323,0.166,4.826,7.397,72.0,10.12,36.56
0.094,0.124,4.821,7.39,72.0,10.11,36.62
0.054,0.145,4.816,7.384,72.0,10.12,36.66
0.065,0.166,4.814,7.377,72.0,10.12,36.7
0.06,0.104,4.809,7.372,72.0,10.12,36.74
0.064,0.124,4.804,7.364,72.0,10.12,36.74
0.104,0.145,4.8,7.358,72.0,10.12,36.71
0.048,0.145,4.794,7.352,72.0,10.12,36.69
0.478,0.539,4.791,7.344,72.0,10.12,36.65
0.097,0.166,4.786,7.339,72.0,10.12,36.6
0.146,0.124,4.783,7.333,72.0,10.12,36.51
0.275,0.145,4.779,7.327,77.0,10.13,36.4
0.378,0.104,4.774,7.32,77.0,10.13,36.29
0.163,0.104,4.769,7.315,77.0,10.13,36.2
0.137,0.124,4.767,7.308,77.0,10.13,36.12
0.147,0.145,4.762,7.302,77.0,10.13,36.02
0.132,0.186,4.758,7.296,77.0,10.12,35.9
0.119,0.124,4.754,7.29,77.0,10.13,35.83
0.109,0.124,4.751,7.285,77.0,10.13,35.8
0.104,0.124,4.747,7.28,77.0,10.13,35.78
0.104,0.145,4.742,7.275,77.0,10.13,35.78
0.1,0.124,4.737,7.27,77.0,10.13,35.77
0.117,0.124,4.734,7.262,77.0,10.13,35.76
0.131,0.104,4.727,7.257,77.0,10.12,35.77
0.091,0.186,4.719,7.252,77.0,10.12,35.77
0.504,0.518,4.714,7.247,77.0,10.12,35.76
0.084,0.124,4.709,7.24,77.0,10.12,35.76
0.125,0.124,4.704,7.235,77.0,10.12,35.77
0.266,0.145,4.699,7.228,55.0,10.13,35.77
0.293,0.145,4.697,7.223,55.0,10.13,35.78
0.087,0.124,4.694,7.216,55.0,10.15,35.77
0.075,0.083,4.689,7.21,55.0,10.13,35.76
0.071,0.145,4.685,7.205,55.0,10.13,35.77
0.044,0.124,4.681,7.198,55.0,10.13,35.73
0.02,0.124,4.68,7.193,55.0,10.13,35.7
0.002,0.207,4.676,7.19,55.0,10.13,35.69
-0.014,0.124,4.672,7.198,55.0,10.13,35.69
-0.012,0.166,4.67,7.21,55.0,10.13,35.66
-0.003,0.124,4.665,7.218,55.0,10.13,35.65
-0.069,0.166,4.662,7.219,55.0,10.12,35.65
0.345,0.414,4.66,7.218,55.0,10.12,35.7
0.124,0.145,17.997,17.997,70.0,15.81,50.0
-0.028,0.166,18.03,18.024,70.0,10.17,50.04
-0.042,0.166,17.979,17.98,70.0,10.12,49.98
-0.029,0.166,17.884,17.91,70.0,10.1,49.88
-0.033,0.145,17.912,17.968,70.0,10.13,49.91
-0.002,0.145,5.434,7.884,70.0,10.13,37.39
-0.059,0.166,4.795,7.3,70.0,10.11,36.85
0.323,0.394,4.62,7.153,70.0,10.12,36.76
-0.048,0.186,4.581,7.122,70.0,10.13,36.8
-0.003,0.124,4.615,7.146,70.0,10.12,36.86
0.111,0.124,4.607,7.141,70.0,10.12,36.88
0.228,0.145,4.598,7.136,70.0,10.12,36.89
0.006,0.124,4.593,7.131,70.0,10.12,36.88
-0.022,0.104,4.59,7.126,70.0,10.11,36.86
0.003,0.166,4.585,7.118,70.0,10.12,36.78
0.0,0.145,4.583,7.113,70.0,10.12,36.68
0.0,0.186,4.576,7.108,70.0,10.11,36.56
0.021,0.145,4.57,7.103,70.0,10.12,36.46
0.049,0.166,4.565,7.098,70.0,10.12,36.38
0.006,0.186,4.559,7.093,70.0,10.11,36.31
0.458,0.539,4.555,7.088,70.0,10.12,36.24
0.085,0.124,4.55,7.083,70.0,10.12,36.16
0.115,0.145,4.545,7.078,70.0,10.11,36.07
0.24,0.124,4.539,7.073,70.0,10.12,36.01
0.273,0.124,4.535,7.069,70.0,10.12,35.95
0.071,0.104,4.53,7.064,70.0,10.12,35.9
0.063,0.145,4.523,7.054,70.0,10.12,35.79
0.073,0.124,4.523,7.054,70.0,10.12,35.77
0.06,0.145,4.52,7.049,70.0,10.12,35.71
0.047,0.083,4.517,7.044,70.0,10.12,35.66
0.045,0.124,4.511,7.041,70.0,10.12,35.64
0.045,0.145,4.507,7.036,70.0,10.12,35.63
0.043,0.083,4.503,7.031,70.0,10.12,35.62
0.045,0.145,4.501,7.026,70.0,10.12,35.62
0.085,0.104,4.496,7.024,70.0,10.12,35.62
0.02,0.145,4.492,7.019,70.0,10.12,35.61
0.476,0.58,4.488,7.014,72.0,10.12,35.6
0.037,0.145,4.486,7.009,72.0,10.12,35.61
0.065,0.145,4.482,7.004,72.0,10.12,35.6
0.172,0.104,4.478,7.0,72.0,10.12,35.6
0.294,0.145,4.476,6.995,72.0,10.12,35.6
0.071,0.166,4.472,6.991,72.0,10.13,35.6
0.033,0.166,4.468,6.986,72.0,10.13,35.59
0.036,0.124,4.463,6.981,72.0,10.12,35.6
0.02,0.124,4.458,6.978,72.0,10.13,35.6
0.004,0.145,4.456,6.976,72.0,10.13,35.59
0.0,0.083,4.451,6.973,72.0,10.13,35.59
-0.003,0.083,4.448,6.973,72.0,10.13,35.59
-0.006,0.104,4.443,6.973,72.0,10.12,35.58
0.034,0.145,4.441,6.974,72.0,10.12,35.58
-0.013,0.145,4.438,6.977,72.0,10.12,35.58
0.405,0.539,4.435,6.98,72.0,10.13,35.58
-0.015,0.186,4.431,6.986,72.0,10.13,35.58
0.004,0.124,4.428,6.992,72.0,10.13,35.58
0.094,0.145,4.426,7.0,72.0,10.11,35.56
0.247,0.166,4.423,7.006,72.0,10.1,35.56
0.048,0.145,4.421,7.014,72.0,10.1,35.57
-0.023,0.166,4.419,7.021,72.0,10.1,35.56
-0.017,0.124,4.418,7.029,72.0,10.1,35.57
-0.029,0.145,4.415,7.035,72.0,10.1,35.59
-0.046,0.166,4.411,7.041,72.0,10.1,35.58
-0.056,0.145,4.41,7.045,72.0,10.1,35.58
-0.063,0.166,4.406,7.047,72.0,10.1,35.58
-0.075,0.145,4.405,7.054,72.0,10.1,35.55
-0.04,0.186,4.403,7.055,72.0,10.1,35.54
-0.108,0.186,4.4,7.055,72.0,10.1,35.53
0.294,0.559,4.399,7.055,72.0,10.1,35.52
-0.119,0.228,4.396,7.055,72.0,10.1,35.53
-0.095,0.166,4.394,7.054,72.0,10.1,35.56
0.096,0.166,4.393,7.053,62.0,10.1,35.62
0.114,0.186,4.39,7.049,62.0,10.1,35.71
-0.075,0.186,4.388,7.046,62.0,10.1,35.8
-0.133,0.145,4.385,7.043,62.0,10.1,35.91
-0.124,0.145,4.384,7.039,62.0,10.1,36.0
-0.129,0.145,4.379,7.031,62.0,10.1,36.16
-0.104,0.166,4.378,7.03,62.0,10.1,36.16
-0.134,0.124,4.375,7.024,62.0,10.1,36.25
0.132,0.414,4.373,7.021,62.0,10.1,36.33
-0.058,0.331,4.369,7.014,62.0,10.1,36.39
-0.122,0.124,4.366,7.009,62.0,10.1,36.43
-0.054,0.166,4.364,7.001,81.0,10.1,36.46
0.126,0.166,4.361,6.996,81.0,10.1,36.49
0.004,0.124,4.358,6.989,81.0,10.1,36.49
-0.121,0.124,4.355,6.984,81.0,10.1,36.52
-0.111,0.124,4.354,6.978,81.0,10.1,36.51
-0.104,0.124,4.35,6.969,81.0,10.1,36.46
-0.111,0.124,4.348,6.964,81.0,10.1,36.37
-0.066,0.145,4.344,6.957,81.0,10.1,36.3
-0.112,0.145,4.341,6.952,81.0,10.1,36.25
0.31,0.622,4.338,6.945,81.0,10.1,36.21
-0.099,0.249,4.334,6.939,81.0,10.08,36.15
-0.061,0.124,4.332,6.934,81.0,10.1,36.1
0.042,0.124,4.329,6.927,79.0,10.1,36.05
0.207,0.166,4.326,6.922,79.0,10.08,36.01
0.01,0.145,4.323,6.915,79.0,10.08,35.96
-0.049,0.166,4.319,6.909,79.0,10.08,35.93
-0.037,0.124,4.317,6.903,79.0,10.08,35.87
-0.044,0.124,4.313,6.897,79.0,10.08,35.78
-0.051,0.145,4.309,6.892,79.0,10.08,35.71
-0.053,0.124,4.307,6.885,79.0,10.08,35.67
-0.013,0.145,4.303,6.881,79.0,10.08,35.65
-0.067,0.166,4.301,6.875,79.0,10.08,35.64
0.368,0.414,4.298,6.87,79.0,10.08,35.64
-0.055,0.166,4.294,6.865,79.0,10.08,35.64
-0.033,0.186,4.292,6.86,79.0,10.08,35.63
0.077,0.124,4.287,6.852,72.0,10.08,35.61
0.209,0.166,4.284,6.847,72.0,10.08,35.62
-0.008,0.166,4.282,6.842,72.0,10.08,35.62
-0.052,0.104,4.279,6.837,72.0,10.08,35.61
-0.043,0.145,4.276,6.832,72.0,10.1,35.61
-0.057,0.104,4.273,6.828,72.0,10.08,35.63
-0.071,0.124,4.269,6.824,72.0,10.08,35.6
-0.074,0.124,4.267,6.82,72.0,10.08,35.59
-0.076,0.145,4.263,6.815,72.0,10.1,35.58
-0.07,0.145,4.261,6.81,72.0,10.1,35.58
-0.036,0.186,4.257,6.805,72.0,10.1,35.58
-0.105,0.166,4.254,6.801,72.0,10.1,35.58
0.363,0.456,4.251,6.797,72.0,10.1,35.58
-0.082,0.166,4.247,6.793,72.0,10.1,35.56
-0.045,0.124,4.244,6.788,72.0,10.08,35.58
0.071,0.124,4.241,6.783,62.0,10.08,35.57
0.171,0.145,4.239,6.778,62.0,10.08,35.56
-0.049,0.166,4.236,6.775,62.0,10.1,35.57
-0.079,0.145,4.232,6.77,62.0,10.1,35.57
-0.075,0.145,4.23,6.767,62.0,10.08,35.57
-0.094,0.186,4.226,6.763,62.0,10.08,35.58
-0.111,0.145,4.222,6.758,62.0,10.08,35.57
-0.118,0.124,4.219,6.755,62.0,10.08,35.56
-0.128,0.228,4.215,6.75,62.0,10.1,35.55
-0.095,0.145,4.211,6.747,62.0,10.1,35.54
-0.141,0.166,4.209,6.743,62.0,10.11,35.54
0.254,0.435,4.205,6.74,62.0,10.1,35.54
-0.154,0.269,4.202,6.735,62.0,10.1,35.57
-0.132,0.166,4.2,6.73,62.0,10.1,35.62
-0.059,0.145,4.197,6.725,64.0,10.1,35.69
0.114,0.145,4.194,6.723,64.0,10.1,35.76
-0.036,0.166,4.191,6.719,64.0,10.1,35.84
-0.149,0.166,4.187,6.716,64.0,10.1,35.93
-0.141,0.124,4.185,6.712,64.0,10.1,36.02
-0.136,0.186,4.181,6.708,64.0,10.08,36.08
-0.121,0.145,4.177,6.705,64.0,10.08,36.14
-0.123,0.145,4.175,6.701,64.0,10.08,36.22
-0.171,0.124,4.17,6.697,64.0,10.08,36.3
0.225,0.539,4.167,6.693,64.0,10.08,36.38
-0.151,0.186,4.164,6.691,64.0,10.08,36.43
-0.112,0.228,4.157,6.683,64.0,10.08,36.48
0.006,0.145,4.157,6.683,79.0,10.08,36.49
0.116,0.145,4.154,6.68,79.0,10.08,36.49
-0.106,0.166,4.152,6.677,79.0,10.08,36.52
-0.136,0.186,4.148,6.673,79.0,10.08,36.52
-0.118,0.145,4.144,6.67,79.0,10.08,36.52
-0.126,0.166,4.142,6.666,79.0,10.08,36.48
-0.125,0.145,4.142,6.661,79.0,10.08,36.45
-0.077,0.186,4.138,6.658,79.0,10.08,36.42
-0.131,0.145,4.135,6.656,79.0,10.08,36.38
0.299,0.518,4.132,6.652,79.0,10.08,36.35
-0.1,0.186,4.128,6.648,79.0,10.08,36.29
-0.058,0.145,4.125,6.645,79.0,10.1,36.23
0.06,0.166,4.123,6.642,77.0,10.08,36.17
0.182,0.249,4.122,6.638,77.0,10.08,36.09
-0.032,0.166,4.119,6.635,77.0,10.08,36.03
-0.067,0.166,4.118,6.631,77.0,10.07,35.96
-0.051,0.166,4.117,6.626,77.0,10.07,35.89
-0.062,0.145,4.113,6.624,77.0,10.08,35.8
-0.071,0.124,4.11,6.619,77.0,10.08,35.72
-0.068,0.186,4.107,6.616,77.0,10.08,35.68
-0.073,0.145,4.103,6.613,77.0,10.08,35.66
-0.03,0.186,4.1,6.609,77.0,10.08,35.65
-0.071,0.186,4.095,6.605,77.0,10.08,35.64
0.354,0.435,4.093,6.601,77.0,10.08,35.64
-0.071,0.207,4.09,6.599,77.0,10.08,35.64
-0.048,0.186,4.088,6.595,77.0,10.08,35.64
0.031,0.145,4.085,6.591,65.0,10.08,35.64
0.194,0.207,4.083,6.589,65.0,10.08,35.64
0.02,0.124,4.08,6.584,65.0,10.08,35.64
-0.068,0.145,4.078,6.58,65.0,10.08,35.63
-0.062,0.104,4.075,6.576,65.0,10.08,35.61
-0.073,0.145,4.073,6.574,65.0,10.08,35.63
-0.084,0.145,4.069,6.57,65.0,10.08,35.61
-0.087,0.166,4.066,6.566,65.0,10.08,35.59
-0.092,0.186,4.062,6.563,65.0,10.08,35.59
-0.089,0.166,4.058,6.56,65.0,10.08,35.59
-0.088,0.207,4.056,6.556,65.0,10.08,35.59
-0.045,0.186,4.055,6.554,65.0,10.08,35.58
-0.1,0.166,4.051,6.55,65.0,10.08,35.58
0.333,0.539,4.048,6.548,65.0,10.08,35.58
-0.091,0.145,4.046,6.544,65.0,10.08,35.58
-0.066,0.145,4.042,6.541,65.0,10.08,35.58
0.033,0.186,4.04,6.538,59.0,10.08,35.58
0.167,0.145,4.037,6.536,59.0,10.08,35.57
-0.056,0.228,4.035,6.532,59.0,10.08,35.58
-0.119,0.186,4.033,6.529,59.0,10.08,35.55
-0.122,0.228,4.031,6.527,59.0,10.08,35.55
-0.141,0.166,4.028,6.524,59.0,10.08,35.56
-0.156,0.186,4.026,6.519,59.0,10.08,35.55
-0.163,0.207,4.021,6.517,59.0,10.08,35.55
-0.148,0.166,4.02,6.514,59.0,10.08,35.61
-0.127,0.228,4.017,6.512,59.0,10.08,35.71
-0.185,0.186,4.015,6.508,59.0,10.08,35.8
0.231,0.518,4.012,6.506,59.0,10.08,35.91
-0.149,0.166,4.01,6.502,59.0,10.08,36.03
-0.099,0.207,4.008,6.498,59.0,10.08,36.15
0.041,0.207,4.006,6.494,67.0,10.08,36.26
0.116,0.207,4.003,6.492,67.0,10.08,36.34
-0.108,0.166,4.001,6.487,67.0,10.07,36.42
-0.133,0.166,3.997,6.484,67.0,10.08,36.5
-0.128,0.166,3.995,6.482,67.0,10.07,36.55
-0.127,0.145,3.992,6.478,67.0,10.07,36.57
-0.12,0.186,3.988,6.476,67.0,10.07,36.59
-0.185,0.186,3.985,6.472,67.0,10.07,36.62
0.229,0.435,3.981,6.471,67.0,10.07,36.63
-0.159,0.186,3.979,6.468,67.0,10.07,36.65
-0.116,0.207,3.976,6.468,67.0,10.08,36.66
0.019,0.207,3.974,6.468,83.0,10.08,36.68
0.084,0.186,3.971,6.466,83.0,10.07,36.67
-0.139,0.145,3.968,6.466,83.0,10.07,36.68
-0.154,0.166,3.965,6.466,83.0,10.08,36.66
-0.14,0.186,3.963,6.464,83.0,10.07,36.63
-0.154,0.166,3.96,6.463,83.0,10.07,36.56
-0.154,0.166,3.956,6.462,83.0,10.07,36.49
-0.112,0.166,3.954,6.461,83.0,10.07,36.43
-0.145,0.166,3.951,6.461,83.0,10.07,36.39
0.207,0.497,3.949,6.461,83.0,10.07,36.34
-0.091,0.394,3.946,6.458,83.0,10.07,36.29
-0.123,0.186,3.944,6.457,83.0,10.07,36.24
-0.052,0.166,3.941,6.456,74.0,10.07,36.18
0.126,0.145,3.939,6.453,74.0,10.07,36.13
0.011,0.166,3.936,6.453,74.0,10.07,36.07
-0.118,0.166,3.934,6.452,74.0,10.07,36.01
-0.107,0.145,3.933,6.451,74.0,10.07,35.96
-0.107,0.145,3.93,6.449,74.0,10.07,35.86
-0.121,0.145,3.928,6.446,74.0,10.07,35.78
-0.12,0.166,3.925,6.445,74.0,10.07,35.72
-0.122,0.186,3.921,6.441,74.0,10.07,35.69
-0.119,0.145,3.916,6.441,74.0,10.07,35.66
-0.115,0.186,3.913,6.44,74.0,10.07,35.66
-0.067,0.186,3.911,6.436,74.0,10.07,35.66
-0.107,0.124,3.909,6.435,74.0,10.07,35.66
0.316,0.456,3.906,6.431,74.0,10.07,35.65
-0.1,0.207,3.904,6.427,74.0,10.07,35.65
-0.08,0.145,3.9,6.425,74.0,10.07,35.65
-0.004,0.145,3.898,6.422,58.0,10.07,35.64
0.17,0.166,3.895,6.417,58.0,10.07,35.64
0.031,0.145,3.894,6.414,58.0,10.07,35.64
-0.08,0.207,3.891,6.41,58.0,10.07,35.64
-0.073,0.166,3.888,6.406,58.0,10.07,35.64
-0.077,0.166,3.886,6.402,58.0,10.07,35.65
-0.093,0.207,3.884,6.4,58.0,10.07,35.63
-0.096,0.207,3.882,6.397,58.0,10.07,35.61
-0.091,0.166,3.877,6.392,58.0,10.07,35.61
-0.091,0.186,3.874,6.39,58.0,10.07,35.6
-0.089,0.104,3.869,6.387,58.0,10.07,35.6
-0.075,0.228,3.866,6.385,58.0,10.07,35.6
-0.095,0.124,3.862,6.381,58.0,10.07,35.6
-0.02,0.207,3.861,6.379,58.0,10.07,35.6
0.356,0.559,3.857,6.375,58.0,10.07,35.6
-0.079,0.145,3.854,6.372,58.0,10.07,35.6
-0.04,0.124,3.852,6.37,58.0,10.07,35.6
0.079,0.166,3.847,6.365,55.0,10.07,35.6
0.19,0.166,3.846,6.365,55.0,10.07,35.6
-0.032,0.145,3.843,6.364,55.0,10.07,35.6
-0.068,0.104,3.841,6.36,55.0,10.07,35.59
-0.063,0.104,3.838,6.357,55.0,10.07,35.6
-0.077,0.124,3.836,6.353,55.0,10.07,35.61
-0.09,0.207,3.832,6.352,55.0,10.07,35.6
-0.096,0.145,3.829,6.349,55.0,10.07,35.6
-0.1,0.145,3.826,6.348,55.0,10.07,35.59
-0.103,0.186,3.824,6.343,55.0,10.07,35.58
-0.1,0.145,3.823,6.34,55.0,10.07,35.58
-0.061,0.145,3.821,6.338,55.0,10.07,35.58
-0.126,0.207,3.817,6.334,55.0,10.07,35.59
0.282,0.559,3.813,6.33,55.0,10.07,35.62
-0.113,0.145,3.811,6.328,55.0,10.07,35.68
-0.078,0.166,3.809,6.324,55.0,10.07,35.75
0.031,0.207,3.808,6.322,57.0,10.07,35.82
0.182,0.166,3.806,6.318,57.0,10.07,35.91
-0.038,0.166,3.803,6.314,57.0,10.07,36.01
-0.097,0.166,3.801,6.31,57.0,10.06,36.08
-0.092,0.145,3.8,6.308,57.0,10.07,36.15
-0.098,0.145,3.797,6.305,57.0,10.07,36.18
-0.109,0.124,3.795,6.303,57.0,10.07,36.22
-0.067,0.145,3.791,6.299,57.0,10.07,36.27
-0.113,0.145,3.789,6.297,57.0,10.06,36.32
0.248,0.456,3.786,6.293,57.0,10.06,36.37
-0.113,0.269,3.782,6.29,57.0,10.06,36.4
-0.093,0.145,3.781,6.289,57.0,10.06,36.42
-0.02,0.166,3.777,6.287,75.0,10.06,36.44
0.165,0.166,3.776,6.285,75.0,10.06,36.44
0.025,0.186,3.772,6.283,75.0,10.06,36.46
-0.103,0.124,3.77,6.279,75.0,10.06,36.46
-0.09,0.207,3.769,6.275,75.0,10.06,36.44
-0.091,0.145,3.766,6.273,75.0,10.06,36.39
-0.101,0.166,3.765,6.27,75.0,10.06,36.32
-0.106,0.124,3.761,6.268,75.0,10.05,36.26
-0.101,0.145,3.76,6.266,75.0,10.05,36.21
-0.055,0.228,3.756,6.263,75.0,10.05,36.18
-0.098,0.186,3.754,6.26,75.0,10.05,36.15
0.323,0.414,3.754,6.257,75.0,10.05,36.11
-0.095,0.207,3.751,6.253,75.0,10.05,36.06
-0.059,0.186,3.75,6.252,75.0,10.05,36.01
0.027,0.186,3.746,6.25,67.0,10.05,35.98
0.203,0.124,3.745,6.247,67.0,10.05,35.93
0.023,0.166,3.741,6.243,67.0,10.05,35.88
-0.067,0.186,3.74,6.241,67.0,10.05,35.83
-0.055,0.124,3.737,6.238,67.0,10.05,35.78
-0.062,0.186,3.735,6.235,67.0,10.05,35.71
-0.075,0.124,3.732,6.233,67.0,10.05,35.66
-0.074,0.124,3.73,6.232,67.0,10.05,35.64
-0.073,0.186,3.727,6.23,67.0,10.05,35.63
-0.069,0.145,3.725,6.227,67.0,10.05,35.61
-0.063,0.104,3.722,6.225,67.0,10.05,35.61
-0.023,0.166,3.72,6.222,67.0,10.05,35.61
-0.055,0.166,3.717,6.22,67.0,10.05,35.61
0.362,0.497,3.716,6.216,67.0,10.05,35.61
-0.06,0.124,3.713,6.213,67.0,10.05,35.61
-0.045,0.186,3.71,6.211,67.0,10.05,35.6
0.024,0.124,3.708,6.207,67.0,10.07,35.6
0.198,0.145,3.707,6.205,67.0,10.07,35.59
0.062,0.166,3.705,6.202,67.0,10.07,35.6
-0.07,0.145,3.703,6.2,57.0,10.07,35.6
-0.071,0.124,3.702,6.196,57.0,10.06,35.59
-0.078,0.186,3.699,6.193,57.0,10.06,35.61
-0.102,0.124,3.697,6.191,57.0,10.07,35.6
-0.108,0.186,3.694,6.19,57.0,10.07,35.6
-0.111,0.186,3.692,6.19,57.0,10.07,35.6
-0.114,0.166,3.689,6.187,57.0,10.07,35.59
-0.073,0.145,3.687,6.187,57.0,10.07,35.59
-0.142,0.186,3.684,6.185,57.0,10.07,35.59
0.272,0.497,3.682,6.183,57.0,10.07,35.58
-0.148,0.186,3.679,6.18,57.0,10.07,35.56
-0.132,0.145,3.675,6.176,57.0,10.07,35.56
-0.035,0.186,3.673,6.174,63.0,10.07,35.56
0.115,0.207,3.67,6.171,63.0,10.07,35.58
-0.108,0.249,3.668,6.169,63.0,10.07,35.61
-0.186,0.394,3.665,6.165,63.0,10.07,35.66
-0.181,0.539,3.663,6.164,63.0,10.07,35.72
-0.191,0.456,3.659,6.161,63.0,10.06,35.79
-0.214,0.684,3.659,6.159,63.0,10.06,35.86
-0.177,0.684,3.66,6.155,63.0,10.07,35.95
-0.212,0.994,3.736,6.154,63.0,10.07,36.04
0.152,1.575,3.809,6.151,63.0,10.07,36.12
-0.193,1.906,3.822,6.149,63.0,10.07,36.27
-0.187,1.74,3.804,6.148,63.0,10.07,36.25
-0.097,1.637,3.797,6.145,75.0,10.07,36.26
0.098,0.932,3.852,6.144,75.0,10.07,36.21
-0.012,1.243,3.93,6.143,75.0,10.07,36.23
-0.128,0.912,3.934,6.144,75.0,10.06,36.17
-0.108,0.974,3.93,6.15,75.0,10.05,36.16
-0.095,1.285,3.934,6.15,75.0,10.05,36.11
-0.098,1.098,3.952,6.151,75.0,10.05,36.05
-0.073,1.015,3.96,6.151,75.0,10.05,36.02
-0.033,0.849,3.963,6.15,75.0,10.05,36.0
-0.105,0.891,3.963,6.154,75.0,10.05,36.0
0.389,0.767,3.96,6.161,75.0,10.05,36.05
-0.042,0.725,3.956,6.166,75.0,10.05,36.05
0.031,0.891,3.955,6.168,75.0,10.06,36.05
0.178,0.622,3.953,6.175,75.0,10.06,36.15
0.297,0.539,3.95,6.185,75.0,10.06,36.24
0.075,0.394,3.946,6.191,75.0,10.07,36.28
0.084,0.539,3.94,6.193,75.0,10.07,36.31
0.15,0.539,3.927,6.203,75.0,10.06,36.32
0.141,0.435,3.917,6.213,75.0,10.06,36.33
0.14,0.477,3.909,6.222,75.0,10.07,36.33
0.197,0.477,3.902,6.236,75.0,10.07,36.47
0.147,0.497,3.896,6.262,75.0,10.06,36.6
0.525,0.622,3.895,6.332,75.0,10.06,36.83
0.107,0.435,3.895,6.338,75.0,10.06,36.84
0.086,0.663,3.896,6.388,75.0,10.06,36.89
0.122,0.497,3.898,6.443,75.0,10.06,37.07
0.29,0.497,3.904,6.508,75.0,10.06,37.36
0.094,0.435,3.91,6.583,75.0,10.06,37.65
-0.025,0.352,3.921,6.67,75.0,10.06,38.03
-0.025,0.539,3.936,6.776,75.0,10.06,38.3
-0.017,0.414,3.956,6.882,75.0,10.06,38.49
-0.007,0.373,3.983,7.104,75.0,10.05,38.8
-0.069,0.435,4.02,7.118,75.0,10.05,39.03
0.315,0.456,4.068,7.229,75.0,10.06,39.06
-0.059,0.311,4.128,7.347,75.0,10.07,39.19
0.0,0.29,4.192,7.47,75.0,10.04,39.38
0.097,0.352,4.257,7.594,75.0,10.04,39.33
0.247,0.331,4.329,7.72,75.0,10.05,39.21
0.024,0.269,4.405,7.842,75.0,10.04,39.04
0.003,0.29,4.494,7.968,85.0,10.04,38.92
0.019,0.29,4.601,8.1,85.0,10.04,38.84
-0.001,0.435,4.709,8.211,85.0,10.02,38.6
-0.01,0.414,4.817,8.32,85.0,10.04,38.39
0.003,0.311,5.02,8.507,85.0,10.04,37.94
0.049,1.098,5.031,8.518,85.0,10.05,37.93
0.027,0.414,5.126,8.597,85.0,10.04,38.05
0.322,0.663,5.216,8.661,85.0,10.02,37.96
0.168,0.559,5.306,8.727,85.0,10.05,37.75
0.049,0.497,5.385,8.781,85.0,10.05,37.88
0.113,1.388,5.457,8.836,85.0,10.05,37.83
0.292,1.202,5.517,8.902,85.0,10.05,37.85
0.213,1.782,5.573,8.96,85.0,10.05,37.96
0.022,1.616,5.661,9.054,85.0,10.02,37.44
-0.009,1.699,5.665,9.059,70.0,10.01,37.39
-0.039,2.238,5.712,9.108,70.0,10.01,37.28
-0.075,1.45,5.764,9.179,70.0,10.02,37.35
-0.099,1.471,5.802,9.27,70.0,10.05,37.11
-0.12,1.14,5.834,9.374,70.0,10.06,36.86
-0.163,1.057,5.874,9.506,70.0,10.04,36.83
-0.175,1.823,5.909,9.692,70.0,10.02,36.65
-0.28,1.492,5.94,9.896,70.0,10.02,36.24
0.097,2.113,5.967,10.091,70.0,10.02,36.01
-0.379,1.782,6.002,10.308,70.0,10.02,35.86
-0.41,2.03,6.041,10.553,70.0,10.05,35.79
-0.369,1.471,6.079,10.799,63.0,10.05,35.89
-0.238,3.501,6.121,11.049,63.0,10.02,36.22
-0.49,1.657,6.172,11.291,63.0,10.02,36.45
-0.61,1.077,6.228,11.514,63.0,10.04,36.52
-0.631,0.642,6.285,11.708,63.0,10.02,36.62
-0.673,0.642,6.345,11.856,63.0,10.02,36.9
-0.68,0.622,6.415,12.02,63.0,10.02,37.31
-0.726,0.228,6.491,12.149,63.0,10.05,37.58
-0.578,0.311,6.559,12.287,63.0,10.05,37.88
-0.589,0.456,6.625,12.361,63.0,10.05,38.31
-0.791,0.269,6.691,12.39,63.0,10.04,38.54
-0.753,0.249,6.759,12.414,63.0,10.02,38.77
-0.59,0.228,6.827,12.453,80.0,10.02,39.02
-0.667,0.228,6.884,12.469,80.0,10.04,39.29
-0.87,0.29,6.944,12.488,80.0,10.04,39.36
-0.875,0.311,6.99,12.489,80.0,10.05,39.26
-0.88,0.207,7.034,12.481,80.0,10.04,39.15
-0.927,0.228,7.079,12.469,80.0,10.05,39.01
-0.936,0.352,7.083,12.407,80.0,10.05,38.81
-0.862,0.331,7.083,12.335,80.0,10.04,38.65
-0.584,0.414,7.093,12.264,80.0,10.05,38.66
-0.89,0.166,7.076,12.171,80.0,10.02,38.55
-0.81,0.186,7.03,11.98,80.0,10.02,38.35
-0.627,0.269,7.026,11.969,83.0,10.05,38.34
-0.625,0.145,6.999,11.87,83.0,10.05,38.27
-0.804,0.186,6.944,11.762,83.0,10.04,38.2
-0.777,0.331,6.846,11.654,83.0,10.02,38.2
-0.751,0.124,6.753,11.543,83.0,10.0,38.13
-0.739,0.186,6.681,11.43,83.0,10.0,38.0
-0.696,0.186,6.638,11.325,83.0,10.04,37.78
-0.651,0.29,6.591,11.221,83.0,10.05,37.56
-0.678,0.394,6.53,11.123,83.0,10.02,37.49
-0.188,0.58,6.478,11.03,83.0,10.04,37.4
-0.61,0.166,6.428,10.942,83.0,10.05,37.24
-0.536,0.373,6.374,10.858,83.0,10.05,37.2
-0.375,0.207,6.319,10.78,76.0,10.05,37.17
-0.281,0.269,6.273,10.7,76.0,10.02,37.01
-0.487,0.145,6.236,10.628,76.0,10.04,36.92
-0.479,0.166,6.197,10.557,76.0,10.05,36.9
-0.45,0.539,6.161,10.492,76.0,10.05,36.9
-0.442,0.394,6.135,10.428,76.0,10.04,36.89
-0.429,0.269,6.083,10.371,76.0,10.04,36.82
-0.397,0.269,6.033,10.32,76.0,10.02,36.67
-0.381,0.331,6.009,10.266,76.0,10.01,36.61
-0.36,0.435,6.018,10.214,76.0,10.0,36.55
0.031,0.746,6.023,10.165,76.0,10.01,36.54
-0.338,0.269,6.016,10.116,76.0,10.05,36.59
-0.272,0.207,6.105,10.072,76.0,10.05,36.6
-0.107,0.228,6.267,10.033,72.0,10.04,36.57
-0.065,0.269,6.329,9.998,72.0,10.05,36.62
-0.254,0.269,6.35,9.975,72.0,10.05,36.58
-0.239,0.166,6.36,9.969,72.0,10.01,36.5
-0.237,0.124,6.375,9.977,72.0,10.04,36.5
-0.232,0.228,6.385,10.0,72.0,10.05,36.53
-0.226,0.145,6.387,10.04,72.0,10.05,36.44
-0.201,0.145,6.392,10.095,72.0,10.04,36.5
-0.147,0.124,6.395,10.163,72.0,10.04,36.5
-0.188,0.166,6.395,10.246,72.0,10.05,36.45
0.284,1.202,6.395,10.331,72.0,10.05,36.48
-0.131,0.787,6.398,10.422,72.0,10.05,36.52
-0.072,0.497,6.406,10.515,72.0,10.05,36.54
0.055,0.497,6.421,10.602,72.0,10.05,36.54
0.212,0.994,6.442,10.683,72.0,10.05,36.61
0.0,0.704,6.467,10.755,72.0,10.05,36.51
-0.027,0.974,6.493,10.815,72.0,10.05,36.51
-0.018,0.622,6.527,10.863,72.0,10.05,36.51
-0.025,0.891,6.561,10.898,72.0,10.05,36.44
-0.022,1.16,6.586,10.924,72.0,10.05,36.46
0.01,1.575,6.602,10.94,72.0,10.05,36.59
0.009,1.036,6.616,10.948,72.0,10.05,36.87
0.109,1.077,6.627,10.945,72.0,10.05,37.02
0.299,1.43,6.621,10.934,72.0,10.05,37.13
0.05,1.471,6.603,10.918,72.0,10.05,37.31
0.119,2.424,6.594,10.897,72.0,10.05,37.44
0.296,0.787,6.589,10.868,72.0,10.06,37.63
0.305,0.829,6.576,10.831,72.0,10.05,37.9
0.139,1.657,6.567,10.786,72.0,10.06,38.19
0.169,1.202,6.553,10.736,72.0,10.06,38.32
0.187,0.994,6.533,10.685,72.0,10.05,38.33
0.183,0.767,6.508,10.627,72.0,10.04,38.37
0.23,0.953,6.476,10.574,72.0,10.05,38.14
0.191,0.829,6.442,10.529,72.0,10.05,37.81
0.638,0.601,6.411,10.476,72.0,10.06,37.6
0.238,0.994,6.382,10.418,72.0,10.05,37.51
0.286,0.767,6.356,10.361,72.0,10.05,37.2
0.414,0.974,6.334,10.307,72.0,10.06,37.21
0.56,0.622,6.31,10.252,72.0,10.05,37.17
0.339,0.601,6.278,10.203,72.0,10.05,37.0
0.29,0.808,6.239,10.148,72.0,10.04,36.92
0.281,0.435,6.211,10.096,72.0,10.02,36.88
0.264,0.663,6.182,10.045,72.0,10.02,36.8
0.257,0.58,6.158,9.995,72.0,10.04,36.7
0.262,0.601,6.144,9.947,72.0,10.05,36.68
0.307,0.622,6.126,9.902,72.0,10.05,36.74
0.249,0.808,6.106,9.858,72.0,10.05,36.66
0.693,0.829,6.079,9.815,72.0,10.04,36.79
0.259,0.456,6.057,9.772,72.0,10.04,36.75
0.278,0.994,6.029,9.732,72.0,10.04,36.77
0.377,0.456,5.998,9.693,72.0,10.05,36.76
0.53,0.311,5.964,9.654,72.0,10.04,36.69
0.319,0.414,5.928,9.617,72.0,10.04,36.71
0.252,0.58,5.905,9.579,72.0,10.02,36.7
0.25,0.414,5.882,9.544,72.0,10.04,36.67
0.228,0.311,5.865,9.51,72.0,10.05,36.68
0.219,0.58,5.853,9.475,72.0,10.05,36.69
0.21,0.373,5.833,9.446,72.0,10.04,36.59
0.201,0.601,5.807,9.423,72.0,10.05,36.6
0.231,0.559,5.791,9.381,72.0,10.04,36.64
0.195,0.497,5.776,9.341,72.0,10.05,36.59
0.581,0.58,5.761,9.306,72.0,10.05,36.65
0.22,0.808,5.74,9.27,72.0,10.04,36.66
0.191,0.352,5.718,9.245,72.0,10.05,36.67
0.255,0.518,5.7,9.222,72.0,10.05,36.6
0.422,0.331,5.687,9.222,72.0,10.05,36.66
0.322,0.394,5.68,9.202,72.0,10.04,36.68
0.151,0.642,5.665,9.167,72.0,10.05,36.56
0.148,0.601,5.652,9.172,72.0,10.04,36.56
0.131,0.601,5.64,9.15,72.0,10.02,36.81
0.118,0.58,5.624,9.122,72.0,10.02,36.91
0.112,0.228,5.608,9.092,72.0,10.04,36.91
0.14,0.394,5.586,9.062,72.0,10.05,37.09
0.119,0.539,5.569,9.058,72.0,10.05,37.25
0.388,0.435,5.555,9.07,72.0,10.04,37.37
0.21,0.352,5.542,9.187,72.0,10.04,37.56
0.128,0.497,5.531,9.291,72.0,10.04,37.73
0.191,0.269,5.518,9.332,72.0,10.04,37.86
0.351,0.497,5.511,9.366,72.0,10.02,37.95
0.293,0.373,5.499,9.4,72.0,10.02,38.06
0.114,0.331,5.483,9.427,72.0,10.04,38.22
0.115,0.456,5.47,9.413,72.0,10.04,38.32
0.112,0.29,5.455,9.338,72.0,10.04,38.31
0.103,0.497,5.444,9.27,72.0,10.02,38.31
0.138,0.29,5.438,9.243,72.0,10.04,38.3
0.08,0.29,5.426,9.2,72.0,10.04,38.34
0.506,0.435,5.416,9.163,72.0,10.04,38.34
0.115,0.29,5.403,9.137,72.0,10.04,38.29
0.16,0.311,5.392,9.137,72.0,10.04,38.11
0.284,0.414,5.384,9.217,72.0,10.05,37.89
0.411,0.207,5.377,9.316,72.0,10.04,37.78
0.187,0.394,5.367,9.367,72.0,10.02,37.62
0.148,0.808,5.357,9.383,72.0,10.02,37.39
0.142,0.518,5.351,9.386,72.0,10.02,37.25
0.13,0.559,5.342,9.379,72.0,10.04,37.11
0.129,0.497,5.331,9.357,72.0,10.04,36.91
0.125,0.559,5.327,9.353,72.0,10.02,36.78
0.161,0.352,5.317,9.342,72.0,10.04,36.75
0.103,0.331,5.311,9.262,72.0,10.05,36.77
0.544,0.58,5.301,9.205,72.0,10.04,36.8
0.125,0.228,5.289,9.187,72.0,10.04,36.86
0.152,0.559,5.28,9.186,72.0,10.04,36.83
0.247,0.497,5.271,9.184,72.0,10.04,36.75
0.396,0.414,5.265,9.168,72.0,10.05,36.7
0.184,0.249,5.259,9.14,72.0,10.05,36.7
0.126,0.373,5.249,9.114,72.0,10.05,36.68
0.125,0.331,5.237,9.087,72.0,10.05,36.66
0.109,0.331,5.231,9.06,72.0,10.04,36.58
0.103,0.331,5.225,9.035,72.0,10.05,36.51
0.098,0.352,5.217,9.009,72.0,10.05,36.47
0.099,0.456,5.209,8.993,72.0,10.04,36.44
0.097,0.269,5.206,8.991,72.0,10.05,36.44
0.132,0.29,5.204,8.989,72.0,10.04,36.44
0.097,0.435,5.199,8.981,72.0,10.04,36.44
0.444,0.414,5.193,8.974,72.0,10.04,36.43
0.126,0.456,5.183,8.964,72.0,10.05,36.43
0.083,0.622,5.169,8.951,72.0,10.04,36.45
0.133,0.331,5.158,8.94,72.0,10.05,36.5
0.295,0.352,5.149,8.928,72.0,10.05,36.56
0.234,0.414,5.143,8.916,72.0,10.04,36.67
0.056,0.808,5.133,8.901,72.0,10.05,36.81
0.057,0.373,5.123,8.888,72.0,10.05,36.95
0.054,0.394,5.116,8.872,72.0,10.05,37.06
0.043,0.518,5.108,8.857,72.0,10.05,37.19
0.055,0.435,5.098,8.84,72.0,10.05,37.37
0.071,0.725,5.088,8.824,72.0,10.05,37.55
0.008,1.782,5.081,8.806,72.0,10.05,37.73
0.437,1.16,5.073,8.789,72.0,10.05,37.85
0.045,2.03,5.066,8.768,72.0,10.05,37.96
0.105,1.45,5.057,8.747,72.0,10.05,38.07
0.249,1.761,5.048,8.724,75.0,10.05,38.2
0.326,1.347,5.039,8.698,75.0,10.04,38.35
0.136,2.61,5.025,8.672,75.0,10.05,38.44
0.153,1.865,5.005,8.646,75.0,10.06,38.31
0.23,2.983,4.994,8.616,75.0,10.05,37.84
0.249,3.004,4.988,8.58,75.0,10.05,37.11
0.312,1.512,4.978,8.551,75.0,10.04,36.44
0.369,2.693,4.962,8.52,75.0,10.04,35.96
0.602,3.356,4.961,8.488,75.0,10.05,35.43
0.732,2.3,4.952,8.417,75.0,10.05,34.6
0.591,3.874,4.951,8.412,75.0,10.05,34.57
0.694,2.59,4.943,8.376,75.0,10.05,34.34
0.902,2.631,4.93,8.336,75.0,10.05,34.31
0.876,2.279,4.912,8.301,75.0,10.04,34.28
0.718,2.528,4.886,8.264,75.0,10.04,34.2
0.746,2.714,4.865,8.229,75.0,10.04,34.26
0.784,1.948,4.854,8.198,75.0,10.05,34.27
0.792,2.942,4.846,8.171,75.0,10.05,34.32
0.849,2.051,4.835,8.142,75.0,10.05,34.4
0.867,2.507,4.824,8.119,75.0,10.05,34.54
1.146,2.693,4.811,8.097,75.0,10.05,34.68
1.103,2.693,4.804,8.074,75.0,10.04,34.85
1.02,3.294,4.795,8.052,75.0,10.04,35.09
1.09,2.569,4.787,8.031,75.0,10.04,35.44
1.317,1.512,4.777,8.013,75.0,10.04,35.9
1.198,3.046,4.769,7.995,75.0,10.04,36.26
1.142,2.963,4.76,7.976,75.0,10.04,36.7
1.165,2.072,4.753,7.958,75.0,10.05,37.05
1.175,4.019,4.748,7.943,75.0,10.04,37.28
1.167,2.548,4.742,7.928,75.0,10.04,37.46
1.203,2.507,4.733,7.904,75.0,10.04,37.84
1.138,2.735,4.732,7.903,75.0,10.04,37.86
1.496,3.087,4.725,7.891,75.0,10.05,38.08
1.111,2.631,4.719,7.879,75.0,10.05,38.22
1.134,2.258,4.717,7.867,75.0,10.04,38.38
1.195,3.17,4.712,7.858,75.0,10.04,38.42
1.353,2.735,4.707,7.847,75.0,10.04,38.39
1.185,2.921,4.702,7.833,75.0,10.04,38.36
1.041,3.605,4.695,7.819,75.0,10.04,38.29
1.025,2.486,4.688,7.805,75.0,10.04,38.14
0.984,2.465,4.681,7.792,75.0,10.04,38.0
0.943,4.019,4.676,7.78,75.0,10.02,37.86
0.909,3.564,4.672,7.767,75.0,10.02,37.78
0.9,11.395,4.667,7.755,75.0,10.02,37.65
0.896,6.195,4.661,7.741,75.0,10.02,37.58
0.842,8.785,4.655,7.731,75.0,10.02,37.67
1.232,10.587,4.65,7.719,75.0,10.02,37.73
0.812,10.691,4.641,7.737,75.0,10.02,37.8
0.794,15.0,4.635,7.807,75.0,10.02,37.86
0.933,11.043,4.634,7.847,75.0,10.02,38.07
0.978,7.438,4.631,7.858,75.0,10.02,38.14
0.705,7.189,4.627,7.865,75.0,10.02,38.24
0.649,6.278,4.622,7.859,75.0,10.02,38.22
0.601,5.635,4.619,7.854,75.0,10.02,38.13
0.55,4.475,4.619,7.838,75.0,10.02,38.01
0.514,4.786,4.617,7.82,75.0,10.02,38.03
0.51,4.081,4.615,7.797,75.0,10.02,38.07
0.465,4.227,4.614,7.777,75.0,10.02,37.93
0.582,3.812,4.611,7.772,75.0,10.02,37.79
0.644,4.247,4.609,7.757,75.0,10.02,37.9
0.37,3.874,4.605,7.739,75.0,10.02,38.06
0.379,5.801,4.598,7.722,75.0,10.02,38.01
0.494,4.185,4.593,7.708,75.0,10.02,37.9
0.429,5.449,4.585,7.7,75.0,10.02,37.77
0.182,4.061,4.579,7.691,75.0,10.02,37.63
0.142,5.035,4.575,7.68,75.0,10.02,37.4
0.103,3.978,4.573,7.673,75.0,10.02,37.07
0.036,3.564,4.568,7.664,75.0,10.02,36.78
-0.028,4.206,4.564,7.658,75.0,10.02,36.58
-0.082,3.564,4.562,7.65,75.0,10.02,36.4
-0.07,4.33,4.558,7.644,75.0,10.02,36.34
-0.158,3.854,4.554,7.634,75.0,10.02,36.3
0.214,2.797,4.55,7.624,75.0,10.02,36.32
-0.246,4.164,4.547,7.616,75.0,10.02,36.38
-0.25,3.087,4.544,7.608,75.0,10.02,36.5
-0.201,2.859,4.54,7.599,68.0,10.02,36.57
-0.05,3.336,4.535,7.589,68.0,10.02,36.73
-0.252,4.102,4.533,7.581,68.0,10.02,36.83
-0.366,3.688,4.528,7.572,68.0,10.02,36.96
-0.373,4.123,4.524,7.562,68.0,10.02,37.14
-0.392,2.942,4.52,7.552,68.0,10.02,37.17
-0.415,5.076,4.513,7.542,68.0,10.02,37.35
-0.422,3.854,4.508,7.529,68.0,10.02,37.6
-0.421,2.963,4.506,7.519,68.0,10.02,38.0
-0.384,3.729,4.502,7.51,68.0,10.02,38.37
-0.436,2.424,4.497,7.5,68.0,10.02,38.63
-0.033,3.522,4.495,7.487,68.0,10.02,39.09
-0.426,2.818,4.492,7.477,68.0,10.02,39.51
-0.4,3.874,4.484,7.467,68.0,10.02,39.8
-0.296,3.066,4.476,7.457,67.0,10.02,39.93
-0.155,2.88,4.472,7.445,67.0,10.02,40.18
-0.417,3.543,4.47,7.435,67.0,10.02,40.39
-0.487,3.356,4.468,7.426,67.0,10.02,40.49
-0.482,3.377,4.467,7.417,67.0,10.02,40.48
-0.499,3.999,4.465,7.407,67.0,10.02,40.4
-0.479,3.149,4.465,7.397,67.0,10.02,40.28
-0.471,3.564,4.462,7.387,67.0,10.02,40.17
-0.331,2.776,4.458,7.378,67.0,10.02,40.15
-0.243,3.356,4.452,7.368,67.0,10.02,40.22
-0.48,4.599,4.443,7.358,67.0,10.02,40.38
-0.424,3.336,4.438,7.348,67.0,10.02,40.35
-0.278,3.46,4.431,7.338,80.0,10.02,40.29
-0.338,2.652,4.426,7.331,80.0,10.02,40.2
-0.544,2.714,4.421,7.321,80.0,10.02,40.11
-0.54,3.087,4.418,7.311,80.0,10.02,40.05
-0.553,3.46,4.415,7.303,80.0,10.02,39.94
-0.573,3.066,4.411,7.293,80.0,10.02,39.86
-0.595,4.227,4.409,7.283,80.0,10.02,39.85
-0.606,2.735,4.404,7.276,80.0,10.02,39.85
-0.567,3.253,4.399,7.268,80.0,10.02,39.78
-0.627,3.253,4.394,7.26,80.0,10.02,39.78
-0.186,4.517,4.391,7.251,80.0,10.02,39.73
-0.621,6.236,4.386,7.243,80.0,10.02,39.65
-0.565,3.688,4.384,7.234,80.0,10.02,39.54
-0.477,4.952,4.381,7.225,67.0,10.02,39.52
-0.284,3.999,4.377,7.216,67.0,10.02,39.82
-0.431,5.283,4.37,7.206,67.0,10.02,40.18
-0.567,5.739,4.364,7.199,67.0,10.02,40.29
-0.555,5.014,4.357,7.189,67.0,10.02,40.25
-0.56,6.174,4.354,7.181,67.0,10.02,39.86
-0.582,5.946,4.349,7.173,67.0,10.02,39.32
-0.579,11.043,4.344,7.165,67.0,10.02,38.87
-0.567,10.628,4.341,7.159,67.0,10.02,38.48
-0.559,9.22,4.335,7.153,67.0,10.02,38.11
-0.524,16.885,4.329,7.147,67.0,10.02,37.84
-0.565,9.012,4.32,7.142,67.0,10.02,37.72
-0.13,11.664,4.312,7.138,67.0,10.02,37.31
-0.568,13.612,4.305,7.137,67.0,10.02,37.03
-0.569,8.059,4.303,7.132,67.0,10.02,37.07
-0.454,9.468,4.302,7.122,64.0,10.02,37.23
-0.369,15.0,4.299,7.112,64.0,10.02,37.48
-0.641,12.472,4.294,7.106,64.0,10.02,38.12
-0.68,9.675,4.289,7.098,64.0,10.04,38.64
-0.691,19.185,4.285,7.091,64.0,10.02,39.18
-0.71,7.935,4.281,7.086,64.0,10.02,39.54
-0.681,16.844,4.275,7.083,64.0,10.02,39.97
-0.721,7.106,4.269,7.082,64.0,10.02,40.3
-0.292,11.105,4.264,7.081,64.0,10.02,40.58
-0.683,19.869,4.259,7.08,64.0,10.02,40.78
-0.63,9.903,4.254,7.078,64.0,10.02,41.03
-0.386,7.231,4.252,7.076,81.0,10.02,41.15
-0.353,7.645,4.246,7.071,81.0,10.02,41.04
-0.543,7.272,4.242,7.065,81.0,10.02,41.02
-0.598,8.681,4.239,7.056,81.0,10.02,41.02
-0.575,6.008,4.232,7.048,81.0,10.02,40.97
-0.569,6.671,4.223,7.04,81.0,10.02,40.84
-0.566,5.138,4.222,7.038,81.0,10.02,40.82
-0.515,6.423,4.217,7.034,81.0,10.02,40.79
-0.552,7.5,4.212,7.033,81.0,10.02,40.77
-0.065,5.863,4.205,7.03,81.0,10.02,40.64
-0.504,9.965,4.2,7.035,81.0,10.02,40.47
-0.467,4.579,4.195,7.029,81.0,10.02,40.14
-0.358,6.402,4.19,7.024,78.0,10.02,39.85
-0.189,7.231,4.186,7.019,78.0,10.02,39.61
-0.398,8.059,4.182,7.025,78.0,10.02,39.49
-0.46,10.421,4.179,7.035,78.0,10.04,39.46
-0.442,8.225,4.175,7.033,78.0,10.04,39.39
-0.447,6.174,4.17,7.031,78.0,10.02,39.32
-0.446,5.366,4.162,7.026,78.0,10.02,39.23
-0.427,4.019,4.155,7.021,78.0,10.04,39.22
-0.372,5.801,4.15,7.028,78.0,10.05,39.2
-0.409,8.515,4.145,7.041,78.0,10.05,39.18
0.068,6.008,4.14,7.051,78.0,10.05,39.2
-0.372,5.138,4.136,7.054,78.0,10.05,39.27
-0.334,5.035,4.132,7.041,78.0,10.05,39.27
-0.236,4.786,4.128,7.03,70.0,10.05,39.3
-0.037,5.656,4.12,7.024,70.0,10.05,39.29
-0.204,6.464,4.115,7.025,70.0,10.05,39.28
-0.294,7.914,4.11,7.022,70.0,10.05,39.24
-0.271,8.494,4.107,7.019,70.0,10.04,39.19
-0.279,7.065,4.103,7.01,70.0,10.04,39.17
-0.288,8.764,4.099,7.006,70.0,10.05,39.12
-0.283,5.262,4.095,6.997,70.0,10.04,39.07
-0.289,14.689,4.09,6.99,70.0,10.04,39.07
-0.232,10.732,4.084,6.991,70.0,10.04,39.02
-0.264,4.952,4.07,6.986,70.0,10.04,38.99
0.213,5.117,4.053,6.983,70.0,10.04,38.93
-0.198,3.646,4.036,6.983,70.0,10.04,38.79
-0.131,6.112,4.018,7.001,70.0,10.04,38.5
0.015,3.791,4.008,7.028,70.0,10.04,38.11
0.266,5.884,4.003,7.053,70.0,10.04,37.56
0.257,5.18,3.998,7.065,70.0,10.04,37.07
0.352,3.667,3.993,7.08,70.0,10.04,36.41
0.441,4.641,3.99,7.097,70.0,10.04,35.8
0.46,5.221,3.983,7.107,70.0,10.04,35.4
0.453,3.812,3.979,7.122,70.0,10.04,35.03
0.454,5.221,3.974,7.142,70.0,10.04,34.78
0.455,3.833,3.969,7.157,70.0,10.04,34.72
0.376,2.528,3.965,7.168,70.0,10.04,35.12
0.786,1.554,3.961,7.183,70.0,10.04,35.38
0.316,2.88,3.959,7.2,70.0,10.04,35.22
0.318,2.735,3.954,7.215,70.0,10.04,35.19
0.429,5.014,3.95,7.228,70.0,10.04,35.28
0.481,4.102,3.954,7.242,70.0,10.04,35.41
0.258,1.699,4.006,7.253,70.0,10.04,35.35
0.234,3.667,4.195,7.261,70.0,10.04,36.11
0.226,2.693,4.222,7.264,70.0,10.04,37.29
0.21,2.569,4.23,7.267,70.0,10.04,37.53
0.22,1.865,4.284,7.27,70.0,10.04,37.44
0.15,3.978,4.307,7.271,70.0,10.04,37.82
0.553,4.04,4.297,7.271,70.0,10.04,37.48
0.149,3.854,4.304,7.27,70.0,10.05,37.26
0.17,3.564,4.308,7.265,70.0,10.04,37.31
0.265,3.771,4.317,7.26,70.0,10.04,37.22
0.426,2.631,4.324,7.253,70.0,10.05,37.08
0.207,2.093,4.324,7.247,70.0,10.05,36.96
0.148,1.45,4.321,7.239,70.0,10.02,36.8
0.137,1.885,4.321,7.229,70.0,10.02,36.46
0.102,1.782,4.321,7.216,70.0,10.02,36.06
0.068,2.548,4.321,7.206,70.0,10.02,35.86
0.06,2.051,4.322,7.193,70.0,10.02,35.66
-0.048,1.595,4.324,7.181,70.0,10.02,35.41
0.326,2.217,4.327,7.171,70.0,10.02,35.16
-0.166,1.202,4.331,7.163,70.0,10.02,35.1
-0.228,2.175,4.334,7.159,70.0,10.02,35.16
-0.235,1.264,4.336,7.158,70.0,10.02,35.26
-0.19,1.678,4.341,7.17,70.0,10.02,35.4
-0.522,2.113,4.345,7.191,70.0,10.04,35.57
-0.698,1.43,4.348,7.23,70.0,10.04,35.73
-0.82,0.849,4.348,7.285,70.0,10.04,35.91
-0.926,3.191,4.348,7.357,70.0,10.04,35.92
-1.013,1.989,4.35,7.439,70.0,10.04,36.03
-1.162,1.285,4.354,7.542,70.0,10.04,36.37
-0.822,0.87,4.362,7.66,70.0,10.04,36.63
-1.276,0.953,4.376,7.793,70.0,10.04,36.78
-1.279,1.015,4.395,7.953,70.0,10.04,36.98
-1.182,0.974,4.419,8.143,70.0,10.04,37.28
-1.149,1.243,4.448,8.349,70.0,10.04,37.5
-1.35,0.746,4.488,8.561,70.0,10.02,37.62
-1.309,1.036,4.536,8.76,70.0,10.04,37.81
-1.276,1.14,4.595,8.953,70.0,10.04,37.82
-1.28,1.181,4.667,9.162,70.0,10.02,37.81
-1.349,0.849,4.749,9.37,70.0,10.01,37.87
-0.862,0.891,4.842,9.564,70.0,10.02,37.89
-1.291,0.746,4.949,9.741,70.0,10.02,37.93
-1.254,1.057,5.06,9.92,70.0,10.02,37.8
-1.102,0.746,5.177,10.104,70.0,10.02,37.66
-1.017,0.725,5.302,10.258,70.0,10.02,37.47
-1.228,0.642,5.425,10.392,70.0,10.02,37.53
-1.235,0.787,5.551,10.511,70.0,10.02,37.62
-1.217,0.849,5.678,10.618,70.0,10.02,37.61
-1.19,0.477,5.801,10.718,70.0,10.02,37.45
-1.241,0.746,5.915,10.805,70.0,10.02,37.55
-0.806,0.849,6.028,10.889,70.0,10.02,37.55
-1.198,1.098,6.136,10.945,70.0,10.02,37.5
-1.181,0.704,6.232,10.989,70.0,10.02,37.35
-1.092,0.704,6.323,11.032,70.0,10.02,37.17
-0.888,0.704,6.4,11.046,70.0,10.0,37.08
-1.021,1.181,6.478,11.043,70.0,10.02,36.79
-1.072,1.285,6.548,11.031,70.0,10.02,36.63
-1.052,0.808,6.605,11.009,70.0,10.02,36.47
-1.047,1.512,6.665,10.978,70.0,10.02,36.53
-1.001,1.222,6.718,10.941,70.0,10.01,36.53
-1.034,0.891,6.762,10.904,70.0,10.0,36.44
-0.749,1.202,6.8,10.874,70.0,10.01,36.26
-0.85,0.953,6.827,10.856,70.0,10.01,36.12
-0.965,0.994,6.849,10.843,70.0,9.99,35.99
-0.895,1.43,6.869,10.841,70.0,9.97,35.93
-0.716,1.098,6.881,10.849,70.0,9.97,35.74
-0.752,1.409,6.891,10.874,70.0,9.99,35.48
-0.894,0.87,6.9,10.907,70.0,9.99,35.49
-0.896,0.849,6.914,10.944,70.0,9.97,35.35
-0.916,1.057,6.928,10.964,70.0,9.97,35.31
-0.92,1.409,6.935,10.983,70.0,10.0,35.22
-0.914,0.663,6.942,11.005,70.0,9.97,35.12
-0.982,1.264,6.95,11.04,70.0,9.97,35.16
-0.542,0.974,6.963,11.082,70.0,10.0,35.32
-0.911,0.849,6.969,11.111,70.0,10.01,35.27
-0.821,1.285,6.978,11.148,70.0,10.01,35.58
-0.633,0.767,6.99,11.18,82.0,10.01,35.98
-0.553,0.539,6.996,11.194,82.0,10.0,36.05
-0.751,0.559,7.006,11.2,82.0,10.01,36.34
-0.704,0.435,7.015,11.183,82.0,10.02,36.59
-0.668,0.559,7.022,11.155,82.0,10.02,36.95
-0.616,0.808,7.03,11.139,82.0,10.02,37.52
-0.61,0.166,7.038,11.113,82.0,10.01,37.39
-0.688,0.186,7.038,11.081,82.0,10.01,37.04
-0.183,0.539,7.036,11.043,82.0,10.0,36.87
-0.526,0.601,7.036,11.007,82.0,10.0,37.02
-0.396,0.373,7.031,10.972,82.0,10.02,37.22
-0.306,0.166,7.026,10.919,82.0,10.0,37.01
-0.284,0.228,7.024,10.853,82.0,10.0,36.57
-0.506,0.249,7.021,10.785,82.0,10.02,36.4
-0.489,0.166,7.011,10.719,84.0,10.04,36.26
-0.482,0.477,6.996,10.657,84.0,10.02,36.67
-0.496,0.207,6.981,10.602,84.0,10.01,36.61
-0.475,0.228,6.967,10.55,84.0,10.0,36.41
-0.595,0.331,6.951,10.505,84.0,10.01,36.33
-0.136,0.539,6.927,10.476,84.0,10.02,36.41
-0.575,0.207,6.9,10.473,84.0,10.02,36.57
-0.546,0.249,6.879,10.479,84.0,10.01,36.43
-0.435,0.124,6.856,10.476,84.0,10.0,36.54
-0.392,0.207,6.835,10.413,84.0,10.02,36.53
-0.644,0.207,6.806,10.377,84.0,10.01,36.59
-0.676,0.228,6.78,10.333,84.0,10.01,36.55
-0.694,0.249,6.751,10.269,84.0,9.99,36.67
-0.702,0.269,6.724,10.207,84.0,9.99,36.78
-0.765,0.186,6.701,10.145,84.0,10.01,37.14
-0.609,0.477,6.672,10.088,84.0,10.02,37.81
-0.673,0.29,6.644,10.036,84.0,10.01,38.17
-0.832,0.186,6.595,9.95,84.0,10.01,38.53
-0.769,0.145,6.591,9.944,86.0,10.01,38.54
-0.634,0.104,6.568,9.904,86.0,10.02,38.58
-0.695,0.311,6.546,9.863,86.0,10.02,38.69
-0.852,0.207,6.52,9.822,86.0,10.0,38.75
-0.841,0.228,6.492,9.78,86.0,10.01,38.91
-0.811,0.166,6.464,9.74,86.0,10.0,39.04
-0.835,0.166,6.442,9.7,86.0,10.0,39.01
-0.699,0.373,6.417,9.66,86.0,10.01,39.01
-0.563,0.373,6.394,9.62,86.0,10.0,39.15
-0.753,0.166,6.374,9.583,86.0,10.0,39.2
-0.649,0.269,6.353,9.546,86.0,9.97,39.17
-0.425,0.601,6.328,9.511,93.0,9.99,39.1
-0.417,1.678,6.305,9.478,93.0,9.99,39.12
-0.533,0.601,6.269,9.445,93.0,10.0,39.14
-0.472,0.559,6.213,9.411,93.0,10.0,38.93
-0.414,0.829,6.141,9.379,93.0,10.02,38.63
-0.346,1.036,6.058,9.352,93.0,10.02,38.23
-0.372,0.456,5.985,9.323,93.0,10.01,37.83
0.11,0.684,5.939,9.301,93.0,10.0,37.78
-0.341,0.725,5.904,9.282,93.0,10.0,37.48
-0.315,1.14,5.88,9.259,93.0,10.0,37.04
-0.18,0.414,5.848,9.236,93.0,10.0,36.82
-0.033,0.539,5.817,9.215,93.0,9.99,36.89
-0.238,0.746,5.785,9.194,93.0,9.99,36.91
-0.249,1.036,5.766,9.171,93.0,10.0,36.79
-0.235,0.87,5.732,9.148,93.0,10.0,36.74
-0.234,0.849,5.705,9.126,93.0,10.0,36.84
-0.218,0.601,5.679,9.104,93.0,9.99,36.82
-0.201,0.414,5.649,9.082,93.0,9.99,36.77
0.076,0.58,5.626,9.061,93.0,10.0,36.79
0.0,0.808,5.609,9.041,93.0,10.02,36.62
-0.165,0.29,5.591,9.019,93.0,10.02,36.39
-0.148,0.518,5.575,9.002,93.0,10.01,36.32
-0.018,0.477,5.562,8.982,93.0,10.0,36.53
-0.056,1.554,5.548,8.962,93.0,9.99,36.37
-0.205,0.704,5.534,8.943,93.0,10.0,36.32
-0.234,0.518,5.513,8.922,93.0,9.99,36.52
-0.32,0.746,5.516,8.902,93.0,10.01,36.43
-0.354,0.559,5.584,8.886,93.0,10.02,36.55
-0.354,0.787,5.66,8.867,93.0,10.02,36.82
-0.447,0.663,5.642,8.851,93.0,10.02,37.39
-0.069,1.119,5.628,8.833,93.0,10.02,37.49
-0.46,0.601,5.667,8.819,93.0,10.02,37.34
-0.447,0.497,5.682,8.801,93.0,10.02,37.51
-0.347,0.414,5.665,8.786,93.0,10.06,37.68
-0.195,0.663,5.669,8.771,93.0,10.06,37.85
-0.391,0.352,5.676,8.754,93.0,10.19,38.05
-0.413,0.497,5.666,8.74,93.0,10.6,38.11
-0.393,0.767,5.658,8.724,93.0,10.85,38.17
-0.357,0.559,5.637,8.709,93.0,10.5,38.24
-0.384,0.497,5.61,8.694,93.0,10.15,38.23
-0.169,0.767,5.587,8.68,93.0,10.11,38.2
-0.168,0.725,5.563,8.667,93.0,10.07,38.22
-0.277,0.518,5.537,8.654,93.0,10.07,38.28
-0.174,0.58,5.52,8.642,93.0,10.07,38.14
0.035,0.435,5.51,8.631,93.0,10.07,38.01
0.066,0.601,5.501,8.621,93.0,10.07,37.89
-0.037,0.974,5.496,8.611,93.0,10.06,37.72
0.018,0.642,5.491,8.601,93.0,10.06,37.5
0.049,0.704,5.48,8.592,93.0,10.06,37.12
0.087,0.767,5.468,8.583,93.0,10.06,37.03
0.131,0.497,5.454,8.576,93.0,10.06,36.92
0.061,0.186,5.444,8.569,93.0,10.05,36.71
0.546,0.808,5.434,8.56,93.0,10.06,36.76
0.164,0.642,5.428,8.551,93.0,10.07,36.68
0.381,0.394,5.427,8.541,93.0,10.28,36.66
0.452,0.249,5.432,8.533,93.0,10.28,36.78
0.55,0.269,5.429,8.524,93.0,10.07,36.43
0.401,0.622,5.428,8.514,93.0,10.06,36.21
0.396,0.58,5.419,8.503,93.0,10.05,36.04
0.414,0.477,5.406,8.479,93.0,10.05,36.22
0.399,0.58,5.405,8.478,93.0,10.04,36.23
0.389,0.953,5.4,8.464,93.0,10.05,36.04
0.416,1.409,5.39,8.453,93.0,10.05,35.97
0.375,2.072,5.382,8.441,93.0,10.05,36.03
0.651,1.264,5.378,8.429,93.0,10.04,36.16
0.44,1.305,5.369,8.417,93.0,10.05,36.31
0.334,1.347,5.365,8.406,93.0,10.05,36.44
0.373,1.347,5.378,8.394,93.0,10.05,36.48
0.498,0.953,5.4,8.385,93.0,10.04,36.43
0.415,0.953,5.415,8.377,93.0,10.04,36.33
0.224,0.331,5.422,8.365,93.0,10.05,36.26
0.189,0.29,5.423,8.354,93.0,10.05,36.3
0.121,0.166,5.423,8.342,93.0,10.05,36.21
0.068,0.166,5.418,8.331,93.0,10.05,36.12
0.019,0.228,5.413,8.32,93.0,10.05,36.26
0.015,0.373,5.41,8.306,93.0,10.05,36.51
-0.007,0.166,5.405,8.292,93.0,10.05,36.65
0.114,0.539,5.404,8.278,93.0,10.05,36.69
0.174,0.228,5.399,8.265,93.0,10.05,36.79
-0.015,0.29,5.395,8.253,93.0,10.05,36.87
0.034,0.394,5.391,8.239,93.0,10.05,37.03
0.173,0.331,5.388,8.221,93.0,10.05,37.26
0.18,0.249,5.385,8.205,93.0,10.05,37.51
0.006,0.394,5.383,8.192,93.0,10.05,37.72
0.018,0.166,5.378,8.178,93.0,10.05,37.81
0.02,0.249,5.376,8.172,93.0,10.05,37.83
0.065,0.249,5.371,8.193,93.0,10.05,37.86
0.045,0.207,5.37,8.238,93.0,10.05,37.87
0.328,0.352,5.37,8.267,93.0,10.05,37.91
0.158,0.435,5.37,8.259,93.0,10.06,37.92
0.119,0.269,5.37,8.255,93.0,10.06,37.89
0.205,0.311,5.368,8.239,93.0,10.05,37.85
0.365,0.269,5.367,8.224,93.0,10.05,37.78
0.317,0.249,5.363,8.212,93.0,10.05,37.68
0.186,0.228,5.358,8.198,93.0,10.05,37.65
0.194,0.331,5.353,8.186,93.0,10.04,37.66
0.205,0.373,5.348,8.176,93.0,10.04,37.45
0.212,0.352,5.346,8.168,93.0,10.04,37.24
0.279,0.394,5.341,8.16,93.0,10.04,37.17
0.242,0.29,5.337,8.155,93.0,10.05,37.04
0.678,0.435,5.336,8.15,93.0,10.05,36.94
0.294,0.269,5.335,8.145,93.0,10.05,36.83
0.345,0.269,5.332,8.14,93.0,10.04,36.76
0.445,0.704,5.328,8.137,93.0,10.04,36.73
0.607,1.45,5.327,8.132,93.0,10.04,36.65
0.464,0.414,5.327,8.131,93.0,10.04,36.65
0.404,0.435,5.326,8.132,93.0,10.04,36.58
0.427,2.901,5.323,8.137,93.0,10.04,36.5
0.424,3.543,5.322,8.141,93.0,10.04,36.43
0.428,0.829,5.318,8.139,93.0,10.04,36.25
0.467,0.767,5.316,8.136,93.0,10.04,36.16
0.535,1.347,5.313,8.132,93.0,10.02,36.11
0.514,0.456,5.315,8.128,93.0,10.02,36.12
0.958,0.849,5.313,8.12,93.0,10.04,36.23
0.555,1.533,5.311,8.114,93.0,10.04,36.16
0.65,2.01,5.308,8.106,93.0,10.04,36.17
0.788,1.367,5.307,8.099,93.0,10.04,36.33
0.868,0.704,5.305,8.089,93.0,10.02,36.31
0.655,1.388,5.306,8.079,93.0,10.02,36.32
0.633,0.891,5.304,8.069,93.0,10.02,36.13
0.614,0.767,5.301,8.059,93.0,10.02,36.01
0.557,0.808,5.3,8.049,93.0,10.01,36.03
0.518,1.16,5.296,8.037,93.0,10.01,36.02
0.498,0.87,5.294,8.027,93.0,10.02,35.98
0.494,0.684,5.289,8.016,93.0,10.01,36.0
0.415,1.305,5.286,8.004,93.0,10.01,36.18
0.818,1.14,5.271,7.992,93.0,10.01,36.31
0.411,1.098,5.244,7.981,93.0,10.01,36.37
0.444,0.787,5.191,7.969,93.0,10.01,36.5
0.576,0.601,5.136,7.959,93.0,10.01,36.8
0.704,1.533,5.082,7.947,93.0,10.02,36.96
0.568,1.43,5.05,7.937,93.0,10.02,36.99
0.553,1.554,5.063,7.925,93.0,10.02,37.02
0.545,0.849,5.132,7.915,93.0,10.02,37.12
0.54,1.575,5.16,7.905,93.0,10.02,37.13
0.515,1.968,5.168,7.895,93.0,10.01,37.07
0.494,1.802,5.155,7.887,93.0,10.02,37.11
0.474,1.243,5.138,7.881,93.0,10.01,37.19
0.647,1.409,5.128,7.878,93.0,10.01,37.05
0.785,1.637,5.12,7.878,93.0,10.01,37.03
0.565,1.471,5.128,7.882,93.0,10.02,37.12
0.645,1.554,5.133,7.895,93.0,10.02,37.16
0.808,1.512,5.127,7.913,93.0,10.02,36.9
0.841,1.554,5.106,7.937,93.0,10.01,36.82
0.693,1.098,5.091,7.972,93.0,10.01,36.87
0.719,0.642,5.081,8.014,93.0,10.01,36.67
0.706,0.767,5.068,8.065,93.0,10.01,36.46
0.661,0.559,5.065,8.128,93.0,10.01,36.42
0.612,0.559,5.077,8.196,93.0,10.02,36.36
0.63,0.622,5.092,8.272,93.0,10.02,36.25
0.559,0.394,5.1,8.362,93.0,10.02,36.21
0.909,0.414,5.105,8.456,93.0,10.02,36.18
0.501,0.849,5.109,8.555,93.0,10.02,36.15
0.46,0.601,5.111,8.66,93.0,10.02,36.08
0.458,0.58,5.109,8.766,93.0,10.02,36.11
0.563,0.497,5.115,8.879,93.0,10.02,36.17
0.415,0.456,5.121,8.994,93.0,10.01,36.16
0.209,0.601,5.132,9.124,93.0,10.01,36.09
0.148,0.414,5.143,9.271,93.0,10.02,36.07
0.068,0.539,5.167,9.433,93.0,10.02,35.99
-0.029,0.456,5.192,9.599,93.0,10.02,35.87
-0.087,0.704,5.213,9.768,93.0,10.01,35.87
-0.132,0.394,5.23,9.955,93.0,10.01,35.83
-0.162,0.394,5.251,10.138,93.0,10.02,35.75
-0.182,0.456,5.276,10.304,93.0,10.01,35.77
-0.264,0.58,5.305,10.468,93.0,10.01,35.9
0.143,0.746,5.331,10.618,93.0,10.01,35.8
-0.314,0.145,5.361,10.755,93.0,10.01,35.78
-0.31,0.249,5.393,10.871,93.0,10.01,35.81
-0.226,0.787,5.423,10.978,93.0,10.01,35.77
-0.161,0.352,5.443,11.07,93.0,10.02,35.71
-0.381,0.311,5.451,11.158,93.0,10.02,35.79
-0.438,0.477,5.467,11.225,93.0,10.02,35.9
-0.447,0.435,5.499,11.271,93.0,10.01,35.99
-0.469,0.601,5.539,11.288,93.0,10.01,36.05
-0.449,0.373,5.574,11.295,93.0,10.01,36.33
-0.466,0.331,5.608,11.287,93.0,10.02,36.62
-0.237,0.394,5.643,11.277,93.0,10.01,36.75
-0.322,0.684,5.676,11.26,93.0,10.01,36.95
-0.42,0.124,5.711,11.229,93.0,10.01,37.06
-0.32,0.394,5.738,11.189,93.0,10.01,37.13
-0.141,0.249,5.762,11.145,79.0,10.01,37.34
-0.15,0.539,5.79,11.091,79.0,10.01,37.5
-0.285,0.29,5.811,11.036,79.0,10.01,37.59
-0.255,0.186,5.826,10.975,79.0,10.01,37.7
-0.23,0.414,5.839,10.915,79.0,10.01,37.91
-0.168,0.622,5.858,10.843,79.0,10.01,38.05
-0.181,0.352,5.877,10.776,79.0,10.01,38.15
0.248,0.642,5.89,10.71,79.0,10.01,38.17
-0.089,0.559,5.899,10.648,79.0,10.02,38.2
-0.002,0.87,5.907,10.577,79.0,10.02,38.2
0.14,0.456,5.894,10.51,88.0,10.02,38.17
0.31,0.704,5.868,10.442,88.0,10.01,38.11
0.195,0.974,5.843,10.373,88.0,10.01,38.03
0.192,0.891,5.826,10.308,88.0,10.0,37.88
0.284,0.829,5.814,10.244,88.0,10.02,37.95
0.249,1.181,5.808,10.185,88.0,10.02,37.9
0.46,1.989,5.799,10.126,88.0,10.02,37.67
0.474,1.077,5.789,10.074,88.0,10.0,37.29
0.776,0.642,5.766,10.019,88.0,10.01,37.93
0.618,1.14,5.753,9.968,88.0,10.01,37.95
0.642,1.347,5.726,9.918,88.0,10.02,36.85
0.782,0.725,5.706,9.873,88.0,10.01,37.15
0.982,0.829,5.716,9.83,88.0,10.01,38.05
0.895,0.767,5.717,9.787,88.0,10.0,37.64
0.741,1.057,5.696,9.747,88.0,10.0,36.8
0.728,0.704,5.654,9.71,88.0,10.0,36.63
0.721,0.912,5.641,9.674,88.0,10.0,36.89
0.771,0.953,5.629,9.64,88.0,10.0,36.78
0.735,0.808,5.597,9.608,88.0,10.0,36.27
1.129,0.808,5.563,9.578,88.0,10.01,36.1
0.66,0.994,5.54,9.548,88.0,10.01,36.35
0.646,1.347,5.526,9.522,88.0,10.0,36.37
0.79,1.43,5.512,9.496,88.0,10.0,36.02
1.037,1.471,5.496,9.47,88.0,10.0,35.96
0.802,0.767,5.481,9.444,88.0,10.0,36.56
0.632,1.388,5.473,9.422,88.0,10.01,36.72
0.633,1.512,5.452,9.399,88.0,10.01,36.07
0.664,1.492,5.435,9.378,88.0,10.0,35.81
0.643,1.077,5.438,9.357,88.0,10.01,36.37
0.53,1.202,5.438,9.337,88.0,10.0,36.77
1.004,1.989,5.413,9.317,88.0,10.0,36.45
0.589,1.181,5.391,9.297,88.0,10.0,36.28
0.615,1.098,5.381,9.277,88.0,10.0,36.62
0.775,1.761,5.381,9.258,88.0,10.0,36.99
0.877,1.119,5.37,9.235,88.0,10.0,36.6
0.63,1.202,5.356,9.218,88.0,9.99,36.5
0.709,1.409,5.366,9.198,88.0,10.0,36.96
0.745,1.326,5.368,9.179,88.0,10.0,36.48
0.728,1.181,5.355,9.162,88.0,10.0,35.82
0.633,1.968,5.347,9.143,88.0,10.01,36.26
1.018,1.637,5.346,9.127,88.0,10.0,36.06
0.741,1.285,5.337,9.109,88.0,10.0,35.81
0.657,1.098,5.327,9.092,88.0,10.0,36.13
0.783,0.891,5.326,9.074,88.0,10.0,36.11
0.88,0.725,5.316,9.056,88.0,10.0,35.41
0.74,0.891,5.297,9.039,88.0,10.01,35.58
0.633,1.492,5.291,9.022,88.0,10.0,36.11
0.694,1.347,5.289,9.005,88.0,10.01,35.86
0.615,0.829,5.286,8.988,88.0,10.01,35.83
0.553,1.243,5.277,8.973,88.0,10.02,36.13
0.553,1.492,5.266,8.958,88.0,10.01,36.15
0.412,1.512,5.255,8.944,88.0,10.02,36.11
0.715,0.746,5.251,8.933,88.0,10.01,36.39
0.296,1.202,5.246,8.924,88.0,10.02,36.35
0.272,0.559,5.235,8.916,88.0,10.02,36.0
0.325,0.58,5.214,8.912,88.0,10.02,36.33
0.419,1.802,5.193,8.908,88.0,10.02,36.65
0.295,1.264,5.167,8.907,88.0,10.02,36.47
0.17,0.808,5.143,8.911,88.0,10.01,36.75
0.148,0.829,5.132,8.917,88.0,10.0,37.39
0.115,0.663,5.126,8.923,88.0,10.0,37.53
0.129,1.036,5.109,8.929,88.0,10.0,37.42
0.061,1.181,5.099,8.938,88.0,10.0,37.86
0.351,1.119,5.101,8.946,88.0,10.0,38.12
0.115,1.015,5.097,8.953,88.0,10.0,38.18
0.058,0.891,5.08,8.96,88.0,10.0,38.12
0.122,1.015,5.061,8.968,88.0,10.0,38.13
0.285,1.243,5.048,8.974,88.0,10.0,38.07
0.21,1.43,5.036,8.979,88.0,10.0,38.13
0.086,1.098,5.035,8.982,88.0,10.0,38.11
0.113,1.699,5.035,8.983,88.0,10.0,37.92
0.115,1.865,5.028,8.984,88.0,10.0,37.72
0.143,1.968,5.024,8.983,88.0,10.0,37.62
0.284,2.548,5.02,8.982,88.0,10.0,37.3
0.289,2.507,5.011,8.979,88.0,10.0,37.14
0.737,2.652,5.004,8.977,88.0,9.99,37.14
0.341,2.424,5.0,8.98,88.0,10.0,36.87
0.425,2.093,4.995,8.989,88.0,10.0,36.24
0.518,2.238,4.985,9.003,88.0,10.01,36.25
0.619,1.761,4.98,9.025,88.0,10.0,36.56
0.432,1.098,4.976,9.057,88.0,10.0,36.46
0.402,0.746,4.963,9.097,88.0,10.0,36.76
0.345,0.704,4.955,9.149,88.0,9.99,37.63
0.289,0.849,4.955,9.209,80.0,10.0,37.53
0.339,1.16,4.958,9.264,80.0,10.01,36.75
0.297,0.601,4.965,9.335,80.0,10.0,37.32
0.441,1.264,4.983,9.406,80.0,10.0,38.06
0.297,1.678,5.004,9.471,80.0,10.0,37.7
0.119,0.849,5.008,9.536,80.0,10.0,37.21
0.151,0.953,5.014,9.599,80.0,10.0,37.18
0.276,0.994,5.026,9.651,80.0,10.0,37.73
0.218,0.87,5.029,9.702,80.0,10.0,37.63
0.071,1.16,5.015,9.751,80.0,10.0,37.75
0.069,1.181,5.012,9.778,80.0,10.0,37.79
0.027,1.823,5.023,9.8,80.0,10.0,37.9
0.085,2.03,5.034,9.814,80.0,10.0,38.09
0.059,0.974,5.034,9.825,80.0,9.99,38.38
0.188,1.885,5.038,9.833,80.0,10.0,38.43
0.307,1.74,5.045,9.833,80.0,10.0,38.2
0.113,1.015,5.067,9.837,80.0,10.0,37.99
0.201,1.657,5.104,9.837,80.0,10.0,38.16
0.371,2.03,5.139,9.835,84.0,10.0,38.28
0.367,2.465,5.161,9.839,84.0,10.0,38.0
0.227,3.025,5.177,9.849,84.0,10.0,37.66
0.256,2.631,5.197,9.859,84.0,10.0,37.78
0.271,1.927,5.221,9.875,84.0,10.0,37.76
0.25,1.968,5.243,9.898,84.0,9.99,37.46
0.275,2.59,5.254,9.934,84.0,9.99,37.54
0.34,2.983,5.254,9.976,84.0,10.0,37.26
0.31,1.678,5.244,10.023,84.0,10.01,36.48
0.597,1.181,5.234,10.073,84.0,10.0,36.33
0.738,0.829,5.236,10.121,84.0,10.0,36.31
0.724,0.994,5.241,10.158,84.0,10.0,36.04
0.931,1.057,5.246,10.193,84.0,10.01,35.12
1.509,0.829,5.248,10.228,84.0,10.0,34.69
2.11,0.746,5.244,10.265,84.0,10.0,34.59
2.497,1.305,5.248,10.319,84.0,10.0,34.48
2.972,1.098,5.276,10.389,84.0,10.0,34.14
3.211,1.347,5.302,10.489,84.0,9.99,33.9
3.377,1.036,5.318,10.591,84.0,10.0,33.91
3.529,0.932,5.331,10.702,84.0,9.99,34.11
3.53,1.657,5.346,10.828,84.0,9.99,34.37
3.985,1.098,5.354,10.979,84.0,9.99,34.49
3.665,1.015,5.366,11.167,84.0,10.0,34.93
3.727,0.953,5.383,11.345,84.0,10.0,35.37
3.846,1.098,5.409,11.54,84.0,10.0,35.77
3.908,0.414,5.438,11.751,84.0,10.0,36.06
3.682,0.601,5.474,11.954,84.0,9.99,36.26
3.595,0.601,5.522,12.162,84.0,10.0,36.37
3.507,0.456,5.581,12.344,84.0,10.0,36.45
3.424,0.373,5.639,12.511,84.0,9.99,36.46
3.311,0.622,5.7,12.669,84.0,10.0,36.55
3.15,0.497,5.761,12.787,84.0,9.99,36.62
3.468,0.477,5.832,12.881,84.0,9.99,36.7
2.99,0.601,5.894,12.957,84.0,9.99,36.69
2.955,0.663,5.954,13.017,84.0,9.99,36.63
2.941,1.036,6.015,13.046,84.0,9.99,36.44
2.584,1.015,6.067,13.057,84.0,9.99,36.36
2.446,1.015,6.108,13.055,84.0,9.99,36.22
2.324,0.746,6.149,13.047,84.0,9.97,35.85
2.15,0.622,6.19,13.025,84.0,9.97,35.43
1.964,1.098,6.226,13.002,84.0,9.97,35.36
1.866,1.844,6.271,12.929,84.0,9.99,35.26
1.698,3.501,6.273,12.923,84.0,9.97,35.26
1.79,4.579,6.293,12.868,84.0,9.97,35.39
1.564,3.108,6.321,12.797,84.0,9.97,35.52
1.052,3.709,6.343,12.718,84.0,9.97,35.37
0.879,2.424,6.354,12.627,84.0,9.97,35.03
0.838,2.445,6.359,12.55,84.0,9.97,34.81
0.609,2.61,6.355,12.482,84.0,9.99,34.78
0.287,1.657,6.353,12.432,84.0,10.0,34.74
0.139,2.569,6.35,12.418,84.0,9.99,34.42
-0.006,2.88,6.344,12.44,84.0,9.99,34.21
-0.116,3.149,6.335,12.492,84.0,10.0,34.2
-0.187,2.631,6.328,12.575,84.0,9.99,34.25
-0.229,3.211,6.311,12.695,84.0,9.99,34.1
-0.339,3.398,6.28,12.848,84.0,9.99,33.86
-0.407,3.501,6.262,13.016,84.0,9.97,33.88
-0.234,4.351,6.26,13.206,84.0,9.99,33.86
-0.734,1.865,6.262,13.404,84.0,10.0,34.14
-0.888,2.445,6.262,13.597,84.0,9.99,34.0
-0.915,1.906,6.263,13.773,84.0,9.99,33.98
-1.018,2.238,6.271,13.943,84.0,9.99,34.17
-1.349,2.238,6.271,14.112,84.0,9.99,34.34
-1.488,1.202,6.279,14.259,84.0,9.99,34.76
-1.63,2.693,6.303,14.378,84.0,9.99,35.05
-1.706,2.258,6.329,14.488,84.0,9.99,35.79
-1.762,1.202,6.35,14.596,84.0,9.97,36.77
-1.923,1.575,6.378,14.715,84.0,9.97,37.03
-1.539,1.512,6.418,14.787,84.0,9.97,37.44
-1.971,1.057,6.461,14.882,84.0,9.97,37.54
-1.957,0.932,6.491,14.905,84.0,9.97,37.92
-1.85,0.953,6.509,14.879,84.0,9.97,37.84
-1.753,1.533,6.52,14.841,84.0,9.97,37.75
-1.955,0.642,6.538,14.8,84.0,9.96,37.95
-1.98,0.684,6.561,14.74,84.0,9.96,38.38
-1.977,0.704,6.584,14.651,84.0,9.96,38.38
-1.939,0.559,6.594,14.541,84.0,9.96,38.11
-1.919,0.518,6.604,14.429,84.0,9.96,37.86
-1.942,1.347,6.618,14.332,84.0,9.96,37.75
-1.459,1.512,6.638,14.227,84.0,9.96,37.57
-1.906,0.663,6.649,14.112,84.0,9.95,37.35
-1.878,0.663,6.657,13.991,84.0,9.95,37.09
-1.749,1.14,6.658,13.866,84.0,9.96,36.82
-1.708,1.595,6.654,13.721,84.0,9.96,36.21
-1.802,1.409,6.646,13.583,84.0,9.96,36.43
-1.803,0.622,6.647,13.453,84.0,9.96,36.47
-1.818,0.725,6.642,13.322,84.0,9.96,36.13
-1.773,1.098,6.628,13.197,84.0,9.96,36.09
-1.756,1.285,6.616,13.068,84.0,9.96,35.65
-1.78,0.497,6.598,12.948,84.0,9.97,35.83
-1.254,0.953,6.581,12.834,84.0,9.96,36.14
-1.706,0.746,6.563,12.723,84.0,9.95,35.89
-1.668,0.642,6.533,12.617,84.0,9.95,35.6
-1.485,0.974,6.496,12.516,84.0,9.96,35.45
-1.385,1.45,6.448,12.421,84.0,9.96,35.45
-1.627,0.559,6.388,12.335,84.0,9.96,35.54
-1.621,1.16,6.353,12.254,84.0,9.96,35.52
-1.602,1.14,6.335,12.179,84.0,9.97,35.36
-1.589,0.912,6.333,12.11,84.0,9.96,35.26
-1.54,1.077,6.329,12.05,84.0,9.96,35.43
-1.6,0.953,6.337,11.993,84.0,9.96,35.37
-1.68,0.891,6.349,11.938,84.0,9.95,35.32
-1.361,0.704,6.301,11.886,84.0,9.95,35.23
-1.767,0.414,6.188,11.835,84.0,9.95,35.17
-1.736,0.145,6.122,11.787,84.0,9.95,35.2
-1.628,0.311,6.193,11.742,84.0,9.95,35.46
-1.568,0.477,6.217,11.697,84.0,9.95,35.71
-1.745,0.829,6.114,11.651,84.0,9.95,35.85
-1.766,0.601,6.052,11.605,84.0,9.94,35.97
-1.781,0.497,6.022,11.561,84.0,9.93,36.1
-1.707,1.036,6.05,11.514,84.0,9.91,36.25
-1.779,0.642,6.115,11.469,84.0,9.93,36.47
-1.424,0.601,6.144,11.424,84.0,9.94,36.88
-1.772,0.642,6.141,11.379,84.0,9.93,37.08
-1.734,0.829,6.099,11.336,84.0,9.93,37.25
-1.638,0.87,6.058,11.292,84.0,9.94,37.34
-1.465,0.518,6.03,11.247,84.0,9.95,37.41
-1.556,0.767,6.005,11.204,84.0,9.95,37.43
-1.625,0.994,5.988,11.162,84.0,9.96,37.43
-1.591,1.305,5.968,11.119,84.0,9.95,37.36
-1.523,1.347,5.946,11.078,84.0,9.95,37.43
-1.535,1.015,5.934,11.037,84.0,9.95,37.34
-1.414,0.891,5.93,10.999,84.0,9.95,37.05
-1.208,1.347,5.919,10.96,84.0,9.96,36.87
-1.423,0.953,5.921,10.924,84.0,9.95,36.69
-1.322,1.16,5.914,10.889,84.0,9.95,36.38
-1.133,1.015,5.908,10.854,84.0,9.96,36.42
-1.103,1.077,5.908,10.821,84.0,9.96,36.26
-1.185,1.015,5.899,10.787,84.0,9.95,36.09
-1.113,0.994,5.893,10.755,84.0,9.94,36.02
-1.089,1.512,5.895,10.723,84.0,9.94,35.81
-1.032,0.394,5.884,10.692,84.0,9.93,35.41
-1.092,0.186,5.878,10.662,84.0,9.94,35.41
-0.607,0.891,5.873,10.632,84.0,9.95,35.34
-0.934,0.932,5.856,10.604,84.0,9.94,35.31
-0.803,0.704,5.846,10.579,84.0,9.95,35.3
-0.686,0.684,5.835,10.554,84.0,9.94,35.21
-0.546,0.477,5.809,10.531,84.0,9.93,35.09
-0.689,1.14,5.777,10.512,84.0,9.93,35.16
-0.698,0.186,5.75,10.491,84.0,9.93,35.09
-0.637,0.559,5.719,10.474,84.0,9.94,35.06
-0.571,0.456,5.694,10.459,84.0,9.94,34.97
-0.501,0.539,5.674,10.445,84.0,9.93,34.84
-0.56,0.704,5.662,10.434,84.0,9.93,34.86
-0.113,0.953,5.653,10.423,84.0,9.93,34.87
-0.531,0.808,5.644,10.412,84.0,9.93,34.83
-0.49,1.326,5.638,10.401,84.0,9.93,34.93
-0.393,1.264,5.632,10.391,85.0,9.93,34.91
-0.315,0.829,5.625,10.381,85.0,9.93,34.77
-0.534,1.74,5.615,10.371,85.0,9.94,34.8
-0.598,1.16,5.609,10.36,85.0,9.94,34.82
-0.624,0.684,5.605,10.348,85.0,9.94,34.82
-0.642,0.269,5.601,10.335,85.0,9.94,34.95
-0.631,0.228,5.601,10.32,85.0,9.94,35.07
-0.723,1.015,5.602,10.303,85.0,9.95,35.12
-0.293,0.518,5.603,10.285,85.0,9.94,35.37
-0.658,0.352,5.6,10.267,85.0,9.94,35.58
-0.601,0.124,5.602,10.247,85.0,9.93,35.68
-0.45,1.616,5.6,10.227,85.0,9.93,35.76
-0.311,1.119,5.594,10.208,85.0,9.94,35.93
-0.494,0.704,5.583,10.193,85.0,9.93,36.23
-0.512,1.077,5.573,10.177,85.0,9.93,36.36
-0.507,0.435,5.559,10.157,85.0,9.94,36.42
-0.459,0.559,5.543,10.138,85.0,9.96,36.65
-0.536,1.077,5.541,10.119,85.0,9.96,36.77
-0.121,0.974,5.537,10.101,85.0,9.95,36.81
-0.49,0.849,5.53,10.086,85.0,9.94,36.94
-0.417,0.912,5.523,10.072,85.0,9.94,37.06
-0.295,1.492,5.517,10.062,85.0,9.95,37.11
-0.138,0.912,5.516,10.048,85.0,9.95,37.18
-0.286,0.953,5.513,10.038,85.0,9.95,37.22
-0.344,1.347,5.503,10.029,85.0,9.95,37.23
-0.314,0.829,5.493,10.022,85.0,9.94,37.26
-0.257,2.341,5.486,10.017,85.0,9.95,37.17
-0.26,2.714,5.485,10.01,85.0,9.95,37.04
-0.209,1.595,5.481,10.002,85.0,9.95,36.86
0.089,2.093,5.477,9.993,85.0,9.95,36.8
-0.233,2.507,5.469,9.983,85.0,9.95,36.68
-0.155,1.678,5.459,9.971,85.0,9.95,36.61
0.024,2.217,5.455,9.958,85.0,9.95,36.7
0.043,2.403,5.454,9.945,85.0,9.94,36.75
-0.07,1.782,5.451,9.931,85.0,9.94,36.58
-0.04,1.72,5.445,9.917,85.0,9.94,36.52
-0.021,0.932,5.443,9.907,85.0,9.94,36.59
0.059,1.968,5.45,9.898,85.0,9.93,36.35
0.082,1.533,5.454,9.891,85.0,9.94,36.25
0.013,1.202,5.45,9.877,85.0,9.94,35.98
0.562,1.595,5.445,9.86,85.0,9.94,36.06
0.148,1.015,5.451,9.843,85.0,9.93,35.81
0.178,0.746,5.453,9.82,85.0,9.93,35.69
0.385,1.015,5.463,9.798,85.0,9.93,35.98
0.498,1.222,5.483,9.784,85.0,9.94,35.85
0.406,0.994,5.495,9.761,85.0,9.95,35.56
0.492,0.642,5.501,9.743,85.0,9.94,35.87
0.466,0.891,5.5,9.725,85.0,9.94,35.39
0.422,0.373,5.49,9.705,85.0,9.93,35.42
0.531,0.497,5.466,9.685,85.0,9.93,35.54
0.613,0.456,5.435,9.661,85.0,9.94,35.31
0.897,1.119,5.392,9.641,85.0,9.94,35.16
1.033,0.808,5.353,9.623,85.0,9.93,35.29
0.758,2.113,5.326,9.607,85.0,9.93,35.27
0.809,0.994,5.302,9.588,85.0,9.93,35.48
0.941,0.746,5.264,9.568,85.0,9.93,35.45
0.839,1.533,5.246,9.544,85.0,9.93,35.44
0.705,7.894,5.239,9.517,85.0,9.93,35.46
0.698,1.657,5.199,9.495,85.0,9.93,35.41
0.664,2.3,5.133,9.477,85.0,9.93,35.26
0.665,3.419,5.093,9.462,85.0,9.93,35.35
0.67,0.373,5.061,9.444,85.0,9.93,35.17
0.546,0.166,5.045,9.425,85.0,9.93,34.7
0.594,0.684,5.047,9.412,85.0,9.94,35.06
0.683,0.725,5.033,9.394,85.0,9.93,35.46
0.398,1.326,5.065,9.372,85.0,9.93,35.53
0.433,1.202,5.127,9.357,85.0,9.93,35.88
0.544,0.808,5.148,9.337,85.0,9.93,35.87
0.469,0.394,5.205,9.323,85.0,9.93,36.08
0.281,0.456,5.205,9.31,85.0,9.93,36.57
0.247,0.932,5.193,9.293,85.0,9.93,36.54
0.187,1.409,5.202,9.276,85.0,9.93,36.48
0.185,0.456,5.202,9.26,85.0,9.93,36.71
0.086,0.414,5.195,9.241,85.0,9.93,36.74
0.418,1.492,5.204,9.229,85.0,9.93,36.95
0.017,1.637,5.158,9.214,85.0,9.95,37.04
0.034,1.202,5.154,9.199,85.0,9.95,37.12
0.091,1.202,5.164,9.185,85.0,9.94,37.27
0.234,1.16,5.216,9.173,85.0,9.93,37.3
0.094,0.87,5.276,9.164,85.0,9.94,37.21
0.027,1.492,5.307,9.154,85.0,9.95,37.26
0.072,0.29,5.314,9.144,85.0,9.95,37.06
0.062,0.953,5.317,9.139,85.0,9.97,36.87
0.142,0.787,5.32,9.139,85.0,10.07,36.62
0.076,1.181,5.314,9.145,85.0,9.99,36.18
0.63,1.761,5.287,9.154,85.0,9.99,36.16
0.458,0.808,5.278,9.174,85.0,9.97,36.59
0.451,0.849,5.269,9.19,85.0,9.99,36.51
0.443,0.642,5.257,9.214,85.0,9.97,36.68
0.541,1.057,5.284,9.25,85.0,9.95,36.48
0.398,1.471,5.299,9.292,85.0,9.95,36.1
0.408,0.767,5.284,9.336,85.0,9.95,35.65
0.418,1.554,5.26,9.367,85.0,9.96,35.6
0.403,1.036,5.243,9.404,85.0,9.96,35.94
0.352,1.554,5.251,9.444,85.0,9.96,35.6
0.302,1.036,5.251,9.485,85.0,9.95,34.71
0.264,1.202,5.233,9.522,85.0,9.95,35.03
0.274,1.14,5.228,9.555,85.0,9.95,35.28
0.636,0.684,5.214,9.589,85.0,9.95,35.3
0.228,0.684,5.203,9.621,85.0,9.95,35.55
0.245,1.285,5.211,9.649,85.0,9.95,35.42
0.351,1.015,5.216,9.674,85.0,9.95,35.34
0.349,0.829,5.219,9.695,85.0,9.95,35.48
0.163,0.601,5.218,9.712,85.0,9.95,35.54
0.147,0.994,5.188,9.732,85.0,9.95,35.52
0.126,0.767,5.157,9.753,85.0,9.95,35.57
0.096,0.808,5.156,9.775,85.0,9.95,35.16
0.074,0.642,5.153,9.798,85.0,9.95,35.14
0.078,0.994,5.158,9.826,85.0,9.95,35.32
0.124,0.704,5.155,9.858,85.0,9.95,35.31
0.047,0.352,5.149,9.89,85.0,9.95,35.38
0.468,1.347,5.154,9.925,85.0,9.95,35.32
0.056,0.829,5.156,9.956,85.0,9.95,35.28
0.081,0.601,5.157,9.986,85.0,9.94,35.38
0.157,1.057,5.153,10.015,85.0,9.94,35.64
0.406,1.367,5.151,10.043,85.0,9.96,35.64
0.288,0.539,5.151,10.07,85.0,9.96,35.65
0.163,0.622,5.153,10.094,85.0,9.96,35.71
0.216,1.492,5.148,10.11,85.0,9.95,35.46
0.175,0.787,5.155,10.12,85.0,9.96,34.65
0.13,0.684,5.162,10.131,85.0,9.97,34.89
0.103,0.974,5.157,10.131,85.0,10.05,36.04
0.111,1.077,5.173,10.125,85.0,10.01,35.37
0.123,1.077,5.144,10.125,85.0,9.97,35.2
0.201,1.326,5.15,10.121,85.0,9.97,35.96
0.142,0.394,5.172,10.111,85.0,9.97,35.42
0.472,1.181,5.159,10.094,85.0,9.97,34.76
-0.001,0.539,5.162,10.075,85.0,9.96,34.74
0.001,0.746,5.178,10.056,85.0,9.95,35.19
0.069,0.352,5.175,10.034,85.0,9.95,35.7
0.188,0.477,5.166,10.005,85.0,9.95,36.34
0.019,0.518,5.161,9.98,85.0,9.95,36.57
-0.101,0.642,5.148,9.957,85.0,9.97,36.95
-0.1,0.663,5.142,9.935,85.0,9.97,37.39
-0.114,0.974,5.147,9.91,85.0,9.96,37.25
-0.13,1.181,5.126,9.888,85.0,9.95,37.27
-0.072,1.015,5.122,9.867,85.0,9.95,37.21
-0.106,1.057,5.115,9.849,85.0,9.95,37.59
0.289,1.347,5.106,9.832,85.0,9.95,38.11
-0.096,0.932,5.098,9.814,85.0,9.95,38.24
-0.05,0.704,5.086,9.796,85.0,9.95,38.37
0.032,0.953,5.084,9.78,77.0,9.95,38.58
0.163,1.657,5.078,9.766,77.0,9.95,38.69
-0.012,1.492,5.068,9.752,77.0,9.95,38.62
-0.083,2.424,5.06,9.747,77.0,9.95,38.47
-0.075,2.465,5.057,9.748,77.0,9.95,38.23
-0.085,2.175,5.052,9.754,77.0,9.95,37.8
-0.091,2.631,5.042,9.767,77.0,9.95,37.44
-0.039,3.419,5.037,9.788,77.0,9.95,37.4
-0.09,2.859,5.031,9.819,77.0,9.95,37.28
0.343,2.652,5.02,9.858,77.0,9.95,37.0
-0.074,3.398,5.012,9.914,77.0,9.95,36.86
-0.064,5.47,5.014,9.975,77.0,9.95,36.76
0.016,3.688,5.006,10.033,77.0,9.95,36.68
0.177,2.797,5.004,10.08,77.0,9.95,36.57
-0.001,4.931,5.01,10.126,77.0,9.95,36.5
-0.071,2.465,5.01,10.162,77.0,9.95,36.41
-0.056,3.854,5.01,10.196,77.0,9.95,36.39
-0.061,5.428,5.016,10.228,77.0,9.95,36.51
-0.063,3.232,5.02,10.252,77.0,9.95,36.52
-0.059,2.569,5.023,10.273,77.0,9.95,36.45
-0.015,3.791,5.025,10.295,77.0,9.95,36.42
-0.046,2.362,5.019,10.322,77.0,9.95,36.36
0.345,3.149,5.019,10.352,77.0,9.95,36.4
-0.001,2.983,5.019,10.39,77.0,9.95,36.47
-0.014,3.232,5.015,10.438,77.0,9.95,36.52
0.054,3.854,5.013,10.503,70.0,9.95,36.6
0.222,3.066,5.008,10.597,70.0,9.95,36.6
0.139,3.46,5.009,10.647,70.0,9.95,36.62
0.011,4.827,5.013,10.663,70.0,9.95,36.63
0.023,4.434,5.019,10.659,70.0,9.95,36.6
0.014,3.522,5.028,10.655,70.0,9.95,36.54
0.015,2.217,5.047,10.647,70.0,9.95,36.43
0.023,1.409,5.061,10.639,70.0,9.95,36.34
0.024,1.181,5.066,10.63,70.0,9.95,36.18
0.031,1.14,5.063,10.586,70.0,9.95,36.1
0.055,1.657,5.055,10.542,70.0,9.95,36.12
0.07,2.465,5.043,10.491,70.0,9.95,36.12
0.104,2.465,5.034,10.433,70.0,9.95,36.16
0.407,1.761,5.026,10.383,70.0,9.95,36.14
0.059,1.243,5.02,10.336,70.0,9.95,36.01
0.104,2.258,5.015,10.289,70.0,9.95,35.86
0.224,2.03,5.01,10.246,60.0,9.95,35.81
0.248,1.43,5.008,10.206,60.0,9.95,35.83
0.031,1.181,5.0,10.166,60.0,9.95,35.83
0.005,0.622,4.994,10.129,60.0,9.95,35.91
-0.011,0.684,4.986,10.081,60.0,9.95,36.02
-0.035,0.497,4.976,10.034,60.0,9.95,36.21
-0.04,0.186,4.969,10.001,60.0,9.95,36.46
-0.001,0.166,4.959,9.974,60.0,9.95,36.65
-0.073,0.124,4.949,9.95,60.0,9.95,36.75
0.332,0.352,4.936,9.931,60.0,9.95,36.89
-0.044,0.166,4.915,9.912,60.0,9.95,37.07
-0.009,0.104,4.892,9.881,60.0,9.95,37.14
0.078,0.145,4.871,9.85,75.0,9.95,37.23
0.208,0.124,4.846,9.826,75.0,9.95,37.34
0.003,0.104,4.824,9.798,75.0,9.95,37.51
-0.049,0.124,4.791,9.773,75.0,9.95,37.75
-0.033,0.104,4.766,9.746,75.0,9.95,37.88
-0.03,0.124,4.746,9.721,75.0,9.95,37.92
-0.017,0.104,4.729,9.694,75.0,9.95,37.99
-0.075,0.166,4.717,9.669,75.0,9.95,38.11
0.355,0.394,4.712,9.645,75.0,9.95,38.2
-0.026,0.083,4.708,9.623,75.0,9.95,38.19
0.021,0.104,4.699,9.603,75.0,9.95,38.14
0.153,0.124,4.687,9.581,86.0,9.95,38.09
0.213,0.124,4.672,9.558,86.0,9.95,38.03
0.013,0.104,4.661,9.536,86.0,9.95,37.96
0.012,0.145,4.652,9.516,86.0,9.95,37.89
0.027,0.104,4.647,9.496,86.0,9.95,37.79
0.023,0.124,4.64,9.475,86.0,9.95,37.68
0.076,0.124,4.632,9.454,86.0,9.95,37.57
0.032,0.104,4.627,9.434,86.0,9.95,37.46
0.448,0.414,4.622,9.414,86.0,9.95,37.4
0.054,0.207,4.616,9.395,86.0,9.95,37.34
0.088,0.124,4.608,9.377,86.0,9.95,37.28
0.167,0.104,4.602,9.359,80.0,9.95,37.22
0.338,0.062,4.599,9.343,80.0,9.95,37.16
0.209,0.104,4.595,9.328,80.0,9.95,37.11
0.119,0.124,4.59,9.313,80.0,9.95,37.05
0.139,0.124,4.585,9.302,80.0,9.95,36.97
0.138,0.145,4.579,9.297,80.0,9.95,36.84
0.129,0.104,4.573,9.301,80.0,9.95,36.74
0.131,0.145,4.568,9.313,80.0,9.95,36.65
0.135,0.104,4.563,9.337,80.0,9.95,36.6
0.139,0.124,4.56,9.372,80.0,9.95,36.57
0.143,0.104,4.555,9.416,80.0,9.95,36.54
0.145,0.124,4.552,9.467,80.0,9.95,36.53
0.184,0.124,4.549,9.527,80.0,9.95,36.53
0.16,0.104,4.547,9.599,80.0,9.95,36.54
0.451,0.394,4.547,9.671,80.0,9.95,36.54
0.265,0.352,4.548,9.744,80.0,9.95,36.54
0.161,0.104,4.549,9.814,80.0,9.95,36.53
0.209,0.104,4.55,9.887,80.0,9.95,36.53
0.357,0.083,4.555,9.962,80.0,9.95,36.52
0.338,0.083,4.558,10.034,80.0,9.95,36.53
0.163,0.104,4.565,10.087,80.0,9.95,36.52
0.161,0.083,4.571,10.134,80.0,9.95,36.51
0.151,0.104,4.579,10.173,80.0,9.95,36.45
0.129,0.124,4.586,10.206,80.0,9.95,36.4
0.12,0.083,4.595,10.236,80.0,9.95,36.37
0.115,0.083,4.602,10.263,80.0,9.95,36.36
0.113,0.124,4.61,10.28,80.0,9.95,36.37
0.112,0.104,4.617,10.29,80.0,9.95,36.37
0.113,0.124,4.625,10.292,80.0,9.95,36.38
0.158,0.124,4.63,10.29,80.0,9.95,36.4
0.101,0.104,4.634,10.281,80.0,9.95,36.42
0.526,1.678,4.637,10.267,80.0,9.95,36.43
0.108,1.492,4.642,10.244,54.0,9.95,36.43
0.125,1.077,4.646,10.219,54.0,9.95,36.43
0.319,1.409,4.646,10.192,54.0,9.95,36.43
0.357,1.471,4.645,10.158,54.0,9.95,36.43
0.195,1.533,4.644,10.121,54.0,9.95,36.42
0.077,2.341,4.644,10.058,54.0,9.95,36.5
0.065,1.326,4.641,10.014,54.0,9.95,36.54
0.035,1.512,4.641,9.977,54.0,9.95,36.59
-0.001,1.637,4.641,9.973,54.0,9.95,36.6
-0.018,1.782,4.64,9.945,54.0,9.95,36.63
-0.03,1.637,4.635,9.915,54.0,9.95,36.58
-0.004,1.305,4.632,9.882,54.0,9.95,36.63
-0.001,1.285,4.63,9.853,54.0,9.95,36.66
-0.058,2.01,4.625,9.828,54.0,9.95,36.64
0.338,1.575,4.618,9.804,54.0,9.95,36.65
-0.077,1.802,4.611,9.786,54.0,9.95,36.72
-0.063,1.243,4.599,9.789,54.0,9.95,36.9
0.007,1.533,4.599,9.791,54.0,9.95,36.91
0.182,1.367,4.593,9.781,54.0,9.95,37.03
0.062,1.326,4.586,9.756,54.0,9.95,37.19
-0.081,1.678,4.579,9.75,54.0,9.95,37.41
-0.066,1.471,4.571,9.772,54.0,9.95,37.57
-0.069,1.222,4.563,9.859,54.0,9.95,37.7
-0.032,1.243,4.555,9.849,54.0,9.95,37.82
-0.019,1.285,4.546,9.823,54.0,9.95,37.94
-0.057,1.388,4.538,9.801,54.0,9.95,38.09
0.099,1.844,4.529,9.778,54.0,9.95,38.23
0.131,1.347,4.523,9.756,54.0,9.95,38.35
-0.05,1.285,4.507,9.716,54.0,9.95,38.54
0.008,1.533,4.506,9.714,75.0,9.95,38.55
0.162,1.326,4.494,9.705,75.0,9.95,38.6
0.134,1.243,4.488,9.704,75.0,9.95,38.59
-0.054,1.595,4.479,9.695,75.0,9.95,38.57
-0.052,1.14,4.472,9.676,75.0,9.95,38.51
-0.046,1.181,4.466,9.653,75.0,9.95,38.4
-0.059,1.098,4.459,9.633,75.0,9.95,38.28
-0.058,1.533,4.453,9.613,75.0,9.95,38.18
-0.023,2.113,4.447,9.594,75.0,9.95,38.11
-0.025,2.113,4.441,9.577,75.0,9.95,38.06
0.051,1.782,4.433,9.558,75.0,9.95,38.0
0.275,1.761,4.428,9.538,75.0,9.95,37.92
-0.03,1.43,4.423,9.522,75.0,9.95,37.85
0.016,1.471,4.42,9.508,75.0,9.95,37.8
0.171,1.098,4.414,9.492,70.0,9.95,37.78
0.203,1.616,4.406,9.465,70.0,9.95,37.74
0.015,1.471,4.401,9.44,70.0,9.95,37.66
0.014,1.72,4.396,9.418,70.0,9.95,37.57
0.025,1.16,4.391,9.398,70.0,9.95,37.46
0.023,1.347,4.386,9.379,70.0,9.95,37.18
0.012,1.264,4.379,9.359,70.0,9.95,37.03
0.023,1.14,4.372,9.341,70.0,9.95,37.05
0.032,0.787,4.366,9.325,70.0,9.95,37.01
0.043,0.767,4.361,9.309,70.0,9.95,37.04
0.083,0.684,4.368,9.296,70.0,9.95,36.98
0.027,0.58,4.384,9.281,70.0,9.95,36.78
0.515,0.539,4.384,9.266,70.0,9.95,36.75
0.084,0.622,4.377,9.253,70.0,9.96,36.78
0.119,0.601,4.372,9.236,70.0,9.95,36.68
0.213,0.497,4.362,9.221,70.0,9.95,36.6
0.31,0.725,4.349,9.206,70.0,9.95,36.6
0.071,0.311,4.334,9.191,70.0,9.95,36.64
0.011,0.352,4.319,9.179,61.0,9.95,36.65
0.0,0.414,4.308,9.164,61.0,9.95,36.64
-0.029,0.311,4.295,9.152,61.0,9.95,36.6
-0.046,0.352,4.284,9.137,61.0,9.95,36.6
-0.055,0.311,4.269,9.123,61.0,9.95,36.7
-0.055,0.311,4.25,9.109,61.0,9.95,36.91
-0.046,0.435,4.231,9.094,61.0,9.95,37.07
-0.025,0.456,4.221,9.082,61.0,9.95,37.26
-0.07,0.559,4.211,9.067,61.0,9.95,37.46
0.328,0.704,4.201,9.052,61.0,9.95,37.61
-0.047,0.994,4.191,9.037,61.0,9.95,37.75
-0.006,0.725,4.178,9.022,61.0,9.95,37.9
0.128,1.43,4.172,9.009,62.0,9.95,38.05
0.206,1.057,4.166,8.995,62.0,9.95,38.2
-0.041,1.326,4.16,8.983,62.0,9.96,38.33
-0.063,0.953,4.151,8.973,62.0,9.95,38.5
-0.061,1.181,4.145,8.968,62.0,9.95,38.61
-0.091,0.787,4.138,8.974,62.0,9.95,38.64
-0.093,0.953,4.135,8.981,62.0,9.96,38.7
-0.056,1.575,4.127,9.014,62.0,9.95,38.56
-0.088,2.424,4.127,9.016,62.0,9.95,38.54
0.285,0.932,4.122,9.043,62.0,9.95,38.32
-0.013,0.704,4.119,9.08,62.0,9.96,38.02
-0.041,0.787,4.115,9.125,62.0,9.96,37.79
0.024,1.057,4.113,9.176,73.0,9.96,37.74
0.201,0.539,4.109,9.235,73.0,9.96,37.71
0.127,0.622,4.108,9.293,73.0,9.95,37.65
-0.03,0.787,4.109,9.357,73.0,9.95,37.6
-0.021,0.435,4.108,9.428,73.0,9.95,37.54
-0.009,0.58,4.105,9.498,73.0,9.95,37.4
-0.018,0.746,4.103,9.577,73.0,9.95,37.31
-0.021,0.684,4.099,9.64,73.0,9.95,37.22
-0.026,0.663,4.097,9.709,73.0,9.95,37.06
-0.024,0.559,4.099,9.768,73.0,9.96,36.94
0.007,0.622,4.105,9.813,73.0,9.97,36.87
0.018,0.663,4.156,9.861,73.0,9.97,36.83
0.168,0.663,4.27,9.926,73.0,9.97,36.79
0.288,0.808,4.34,9.977,73.0,9.97,36.76
0.03,0.373,4.457,10.045,73.0,9.97,36.82
0.078,0.373,4.55,10.106,61.0,9.97,36.75
0.218,0.559,4.635,10.154,61.0,9.97,36.6
0.23,0.559,4.708,10.205,61.0,9.97,36.58
0.01,0.477,4.745,10.266,61.0,9.97,36.6
-0.003,0.518,4.728,10.304,61.0,9.97,36.62
-0.018,0.622,4.741,10.328,61.0,9.97,36.56
-0.046,0.622,4.837,10.344,61.0,9.97,36.41
-0.065,0.725,4.959,10.357,61.0,9.97,36.32
-0.073,0.746,5.044,10.371,61.0,9.97,36.32
-0.104,0.58,5.144,10.374,61.0,9.97,36.31
-0.102,0.58,5.203,10.372,61.0,9.97,36.26
-0.069,0.684,5.247,10.365,61.0,9.97,36.28
-0.12,0.539,5.275,10.353,61.0,9.97,36.37
0.27,0.704,5.301,10.34,61.0,9.97,36.51
-0.136,0.808,5.328,10.312,61.0,9.97,36.87
-0.111,0.849,5.33,10.309,61.0,9.97,36.9
-0.042,0.497,5.333,10.287,59.0,9.97,37.03
0.127,0.746,5.343,10.261,59.0,9.97,37.16
0.014,0.559,5.345,10.234,59.0,9.97,37.31
-0.126,0.601,5.349,10.207,59.0,9.97,37.45
-0.119,0.684,5.362,10.178,59.0,9.97,37.59
-0.125,0.663,5.374,10.15,59.0,9.97,37.7
-0.141,0.58,5.384,10.116,59.0,9.97,37.78
-0.106,0.622,5.394,10.082,59.0,9.97,37.88
-0.136,0.642,5.401,10.049,59.0,9.97,37.96
0.106,0.684,5.405,10.014,59.0,9.97,38.02
-0.003,0.622,5.407,9.977,59.0,9.97,38.0
-0.12,0.435,5.408,9.942,59.0,9.97,37.95
-0.056,0.725,5.401,9.908,75.0,9.97,37.89
0.104,0.435,5.388,9.875,75.0,9.97,37.8
0.074,0.477,5.37,9.84,75.0,9.97,37.68
-0.103,0.29,5.35,9.808,75.0,9.97,37.54
-0.099,0.58,5.338,9.774,75.0,9.97,37.38
-0.095,0.58,5.331,9.744,75.0,9.97,37.18
-0.109,0.394,5.321,9.715,75.0,9.99,37.0
-0.109,0.373,5.317,9.686,75.0,9.97,36.89
-0.107,0.373,5.303,9.661,75.0,9.97,36.78
-0.063,0.456,5.292,9.636,75.0,9.99,36.68
-0.11,0.394,5.29,9.617,75.0,9.99,36.59
0.322,0.58,5.281,9.605,75.0,9.99,36.5
-0.099,0.435,5.265,9.604,75.0,9.99,36.45
-0.074,0.373,5.251,9.614,75.0,9.99,36.41
0.0,0.435,5.235,9.636,68.0,9.99,36.36
0.169,0.29,5.222,9.671,68.0,10.0,36.31
0.018,0.497,5.21,9.723,68.0,9.99,36.27
-0.087,0.601,5.203,9.783,68.0,9.99,36.25
-0.08,0.394,5.195,9.854,68.0,9.97,36.23
-0.091,0.477,5.194,9.934,68.0,9.97,36.17
-0.105,0.394,5.195,10.011,68.0,9.97,36.09
-0.115,0.414,5.206,10.093,68.0,9.97,36.03
-0.092,0.435,5.215,10.175,68.0,9.97,35.99
-0.089,0.331,5.231,10.258,68.0,9.97,36.01
-0.018,0.331,5.25,10.337,68.0,9.97,36.04
0.205,0.394,5.274,10.412,68.0,9.97,36.01
-0.113,0.58,5.302,10.473,68.0,9.97,35.97
-0.072,0.477,5.334,10.535,68.0,9.97,35.99
0.062,0.497,5.367,10.58,68.0,9.97,36.0
0.087,0.373,5.397,10.631,68.0,9.97,35.94
-0.126,0.414,5.424,10.682,68.0,9.97,35.85
-0.143,0.207,5.453,10.712,68.0,9.97,35.87
-0.149,0.207,5.48,10.725,68.0,9.97,35.89
-0.171,0.311,5.501,10.738,68.0,9.97,35.9
-0.176,0.269,5.521,10.731,68.0,9.97,36.0
-0.148,0.186,5.541,10.726,68.0,9.97,36.16
-0.214,0.249,5.557,10.718,68.0,9.97,36.34
0.21,0.601,5.567,10.706,68.0,9.99,36.49
-0.187,0.435,5.575,10.689,68.0,9.99,36.62
-0.156,0.497,5.583,10.669,68.0,9.97,36.76
-0.058,0.207,5.593,10.657,75.0,9.97,36.98
0.081,0.104,5.602,10.637,75.0,9.97,37.17
-0.137,0.414,5.606,10.604,75.0,9.99,37.32
-0.181,0.228,5.607,10.551,75.0,10.0,37.41
-0.169,0.29,5.604,10.493,75.0,10.0,37.42
-0.178,0.29,5.603,10.442,75.0,10.06,37.49
-0.144,0.311,5.601,10.395,75.0,10.17,37.54
-0.199,0.29,5.597,10.35,75.0,10.22,37.52
0.216,0.477,5.59,10.305,75.0,10.26,37.45
-0.178,0.435,5.58,10.26,75.0,10.27,37.42
-0.142,0.29,5.574,10.213,75.0,10.32,37.35
-0.044,0.228,5.574,10.168,83.0,10.33,37.26
-0.073,0.394,5.579,10.124,83.0,10.27,37.18
-0.125,0.373,5.582,10.081,83.0,10.26,37.07
-0.137,0.311,5.583,10.041,83.0,10.22,36.95
-0.116,0.642,5.578,9.999,83.0,10.19,36.76
-0.123,0.87,5.574,9.957,83.0,10.19,36.63
-0.123,0.331,5.569,9.886,83.0,10.22,36.44
-0.074,0.104,5.568,9.882,83.0,10.21,36.43
-0.12,0.166,5.565,9.846,83.0,10.17,36.44
0.307,0.622,5.556,9.813,83.0,10.17,36.39
-0.113,0.767,5.542,9.778,83.0,10.21,36.16
-0.086,0.166,5.532,9.744,83.0,10.22,36.15
-0.01,0.145,5.531,9.713,75.0,10.21,36.21
0.158,0.435,5.532,9.684,75.0,10.21,36.15
0.027,0.124,5.526,9.657,75.0,10.22,35.97
-0.06,0.124,5.516,9.626,75.0,10.19,35.81
-0.057,0.207,5.507,9.597,75.0,10.16,35.99
-0.061,0.435,5.497,9.569,75.0,10.16,36.06
-0.062,0.311,5.497,9.544,75.0,10.23,35.86
-0.056,0.186,5.497,9.519,75.0,10.22,35.82
-0.043,0.145,5.495,9.499,75.0,10.16,36.04
-0.035,0.145,5.488,9.477,75.0,10.15,36.06
-0.065,0.58,5.485,9.455,75.0,10.17,35.68
0.369,0.767,5.48,9.432,75.0,10.18,35.67
-0.066,1.243,5.475,9.412,75.0,10.18,35.85
-0.037,0.767,5.474,9.393,75.0,10.17,35.78
0.079,0.787,5.481,9.378,68.0,10.17,35.89
0.161,0.311,5.475,9.361,68.0,10.16,35.93
-0.05,0.58,5.465,9.343,68.0,10.15,35.79
-0.075,0.29,5.465,9.326,68.0,10.17,35.75
-0.081,0.207,5.467,9.311,68.0,10.21,35.62
-0.115,0.186,5.467,9.298,68.0,10.21,35.61
-0.136,0.269,5.46,9.288,68.0,10.18,35.78
-0.137,0.269,5.453,9.276,68.0,10.17,35.88
-0.112,0.269,5.449,9.262,68.0,10.15,35.71
-0.177,0.849,5.452,9.252,68.0,10.15,35.94
0.222,0.601,5.443,9.239,68.0,10.17,35.9
-0.185,0.456,5.436,9.225,68.0,10.19,35.99
-0.156,0.186,5.43,9.215,68.0,10.19,36.4
-0.062,0.186,5.428,9.204,70.0,10.16,36.7
0.091,0.394,5.432,9.19,70.0,10.13,36.91
-0.114,0.829,5.433,9.177,70.0,10.16,37.06
-0.184,0.746,5.424,9.165,70.0,10.19,37.39
-0.167,0.186,5.415,9.157,70.0,10.16,37.59
-0.18,0.414,5.416,9.145,70.0,10.13,37.8
-0.158,0.622,5.422,9.132,70.0,10.15,37.97
-0.198,0.373,5.419,9.119,70.0,10.17,37.92
0.185,0.394,5.41,9.109,70.0,10.18,38.02
-0.154,0.207,5.396,9.099,70.0,10.16,38.08
-0.158,0.559,5.396,9.087,70.0,10.17,37.9
-0.108,0.704,5.4,9.075,81.0,10.19,37.77
0.072,0.539,5.396,9.061,81.0,10.17,37.77
-0.006,0.166,5.38,9.051,81.0,10.07,37.73
-0.133,0.373,5.37,9.04,81.0,10.11,37.62
-0.136,0.518,5.37,9.025,81.0,10.17,37.05
-0.144,0.684,5.366,9.013,81.0,10.18,36.56
-0.149,0.559,5.366,9.006,81.0,10.13,36.85
-0.14,0.249,5.351,8.996,81.0,10.12,36.95
-0.113,0.684,5.352,8.986,81.0,10.15,36.62
-0.138,0.767,5.362,8.976,81.0,10.21,36.0
0.213,0.642,5.365,8.965,81.0,10.21,36.22
-0.033,0.829,5.36,8.954,81.0,10.07,36.62
-0.115,0.849,5.343,8.941,81.0,10.04,36.39
-0.066,1.015,5.345,8.928,71.0,10.15,36.02
0.094,0.87,5.346,8.917,71.0,10.13,35.83
0.058,0.58,5.346,8.904,71.0,10.06,36.18
-0.102,0.414,5.335,8.894,71.0,10.06,36.36
-0.109,0.808,5.336,8.882,71.0,10.12,36.08
-0.093,1.036,5.345,8.872,71.0,10.16,35.89
-0.117,1.098,5.345,8.862,71.0,10.15,36.13
-0.124,1.367,5.335,8.854,71.0,10.12,36.32
-0.129,0.849,5.329,8.844,71.0,10.13,35.98
-0.097,0.808,5.342,8.834,71.0,10.12,36.02
-0.135,0.891,5.343,8.822,71.0,10.13,36.21
0.27,0.891,5.337,8.81,71.0,10.15,36.2
-0.106,0.622,5.326,8.802,71.0,10.13,35.96
-0.128,0.559,5.326,8.792,71.0,10.13,35.98
-0.07,0.953,5.331,8.78,66.0,10.13,36.04
0.083,0.953,5.328,8.767,66.0,10.12,35.98
-0.005,0.849,5.322,8.757,66.0,10.13,36.07
-0.17,0.704,5.315,8.745,66.0,10.13,35.95
-0.179,0.269,5.315,8.738,66.0,10.12,35.95
-0.19,0.704,5.312,8.729,66.0,10.1,36.01
-0.212,0.849,5.308,8.72,66.0,10.12,36.09
-0.223,0.663,5.305,8.712,66.0,10.12,36.02
-0.222,0.601,5.307,8.703,66.0,10.11,36.23
-0.197,0.518,5.306,8.694,66.0,10.11,36.46
-0.222,0.456,5.304,8.685,66.0,10.11,36.63
0.123,0.808,5.303,8.675,66.0,10.12,36.74
-0.176,0.456,5.301,8.668,66.0,10.12,36.95
-0.2,0.186,5.298,8.659,66.0,10.11,37.12
-0.137,0.166,5.296,8.652,66.0,10.11,37.24
0.021,0.186,5.294,8.643,66.0,10.12,37.32
-0.022,0.29,5.296,8.636,66.0,10.12,37.5
-0.19,0.394,5.293,8.627,66.0,10.12,37.61
-0.186,0.228,5.29,8.62,66.0,10.12,37.66
-0.188,0.145,5.289,8.613,66.0,10.12,37.66
-0.188,0.145,5.288,8.605,66.0,10.12,37.62
-0.165,0.477,5.284,8.597,66.0,10.13,37.56
-0.227,0.456,5.283,8.588,66.0,10.12,37.52
0.217,0.497,5.28,8.58,66.0,10.12,37.53
-0.192,0.145,5.278,8.571,66.0,10.13,37.48
-0.052,0.29,5.276,8.561,66.0,10.13,37.43
0.009,0.269,5.272,8.551,66.0,10.13,37.38
0.069,0.083,5.269,8.541,66.0,10.12,37.36
-0.15,0.124,5.265,8.534,66.0,10.12,37.31
-0.164,0.145,5.261,8.524,80.0,10.13,37.24
-0.148,0.145,5.247,8.506,80.0,10.12,36.91
-0.157,0.124,5.246,8.505,80.0,10.12,36.89
-0.151,0.145,5.239,8.496,80.0,10.13,36.81
-0.104,0.104,5.234,8.486,80.0,10.12,36.72
-0.152,0.166,5.231,8.477,80.0,10.12,36.71
0.304,0.435,5.229,8.467,80.0,10.12,36.7
-0.105,0.166,5.225,8.457,80.0,10.12,36.59
-0.073,0.083,5.229,8.447,80.0,10.12,36.55
0.13,0.166,5.233,8.437,76.0,10.12,36.5
0.151,0.145,5.233,8.428,76.0,10.12,36.43
-0.025,0.207,5.235,8.418,76.0,10.12,36.44
-0.078,0.145,5.235,8.409,76.0,10.12,36.41
-0.073,0.145,5.235,8.399,76.0,10.12,36.27
-0.087,0.145,5.234,8.382,76.0,10.12,36.09
-0.096,0.145,5.234,8.381,76.0,10.12,36.08
-0.088,0.207,5.229,8.374,76.0,10.12,36.0
-0.05,0.145,5.228,8.365,76.0,10.12,35.94
-0.11,0.166,5.228,8.356,76.0,10.12,35.97
0.334,0.414,5.226,8.347,76.0,10.12,35.98
-0.088,0.166,5.228,8.337,76.0,10.12,35.96
-0.066,0.124,5.224,8.33,76.0,10.12,36.0
0.024,0.145,5.221,8.32,71.0,10.11,36.01
0.173,0.145,5.22,8.312,71.0,10.11,35.98
-0.013,0.249,5.21,8.304,71.0,10.12,35.99
-0.076,0.145,5.198,8.298,71.0,10.11,35.99
-0.079,0.186,5.189,8.29,71.0,10.12,35.99
-0.093,0.166,5.191,8.283,71.0,10.12,35.97
-0.098,0.166,5.202,8.274,71.0,10.12,35.88
-0.101,0.166,5.219,8.267,71.0,10.11,35.94
-0.052,0.186,5.226,8.259,71.0,10.12,35.97
-0.101,0.124,5.228,8.254,71.0,10.11,35.91
0.316,0.497,5.229,8.251,71.0,10.13,35.84
-0.102,0.269,5.229,8.244,71.0,10.12,35.88
-0.086,0.166,5.224,8.237,71.0,10.12,35.72
-0.016,0.145,5.216,8.232,70.0,10.16,36.08
0.151,0.186,5.213,8.225,70.0,10.13,35.83
0.041,0.373,5.209,8.221,70.0,10.12,35.81
-0.095,0.684,5.204,8.215,70.0,10.15,35.81
-0.083,0.249,5.197,8.21,70.0,10.16,35.69
-0.074,0.352,5.177,8.207,70.0,10.13,35.79
-0.107,0.559,5.158,8.202,70.0,10.15,36.07
-0.118,0.414,5.142,8.198,70.0,10.17,35.81
-0.085,0.373,5.123,8.192,70.0,10.17,35.37
-0.148,0.601,5.108,8.187,70.0,10.16,35.74
0.247,0.497,5.1,8.185,70.0,10.15,36.14
-0.152,0.207,5.09,8.181,70.0,10.13,35.88
-0.122,0.145,5.072,8.179,70.0,10.13,35.83
-0.048,0.186,5.061,8.177,72.0,10.15,36.11
0.106,0.166,5.053,8.175,72.0,10.16,36.27
-0.062,0.166,5.039,8.172,72.0,10.15,36.31
-0.149,0.207,5.02,8.167,72.0,10.15,36.51
-0.143,0.166,5.005,8.162,72.0,10.16,36.72
-0.149,0.186,4.99,8.156,72.0,10.15,36.83
-0.112,0.186,4.976,8.15,72.0,10.15,36.93
-0.17,0.124,4.968,8.145,72.0,10.15,37.11
0.222,0.414,4.958,8.137,72.0,10.16,37.23
-0.154,0.145,4.947,8.132,72.0,10.15,37.3
-0.12,0.166,4.938,8.125,72.0,10.15,37.4
-0.036,0.166,4.939,8.12,84.0,10.15,37.5
0.122,0.166,4.945,8.113,84.0,10.15,37.53
-0.056,0.974,4.943,8.106,84.0,10.15,37.58
-0.137,0.912,4.942,8.099,84.0,10.17,37.6
-0.116,1.14,4.942,8.093,84.0,10.16,37.59
-0.133,0.953,4.942,8.085,84.0,10.16,37.6
-0.081,1.222,4.94,8.078,84.0,10.16,37.56
-0.135,0.787,4.94,8.073,84.0,10.16,37.41
0.291,1.057,4.944,8.068,84.0,10.15,37.4
-0.129,1.015,4.947,8.064,84.0,10.15,37.42
-0.089,1.036,4.95,8.06,84.0,10.16,37.28
0.012,0.994,4.95,8.055,84.0,10.16,37.42
0.189,1.678,4.948,8.05,84.0,10.16,37.67
0.036,1.533,4.943,8.045,84.0,10.16,37.55
-0.033,1.471,4.938,8.039,84.0,10.17,37.33
-0.013,1.119,4.933,8.033,84.0,10.16,37.3
-0.01,1.471,4.932,8.028,84.0,10.16,37.21
-0.011,1.533,4.928,8.026,84.0,10.16,37.05
0.004,1.409,4.923,8.021,84.0,10.16,36.89
0.034,1.678,4.921,8.018,84.0,10.15,36.74
0.0,1.699,4.917,8.013,84.0,10.13,36.71
0.481,1.989,4.915,8.008,84.0,10.16,36.48
0.033,2.093,4.912,8.003,84.0,10.17,36.37
0.101,1.699,4.91,7.997,84.0,10.13,36.11
0.251,2.714,4.91,7.991,84.0,10.15,36.41
0.392,1.533,4.907,7.986,84.0,10.16,36.31
0.186,1.699,4.912,7.981,84.0,10.15,36.36
0.156,1.802,4.916,7.976,84.0,10.15,36.47
0.173,1.802,4.92,7.969,84.0,10.15,36.62
0.162,0.767,4.916,7.963,84.0,10.16,36.68
0.177,1.264,4.915,7.958,84.0,10.17,36.78
0.215,1.036,4.913,7.953,84.0,10.16,36.75
0.162,1.202,4.917,7.947,84.0,10.13,36.7
0.507,1.782,4.915,7.941,84.0,10.16,36.89
0.197,1.367,4.91,7.936,84.0,10.17,36.87
0.117,0.725,4.908,7.931,84.0,10.16,36.86
0.185,1.015,4.913,7.926,84.0,10.15,36.95
0.33,2.341,4.913,7.921,84.0,10.17,36.96
0.239,1.285,4.912,7.915,84.0,10.16,36.99
0.085,0.953,4.915,7.911,84.0,10.15,36.95
0.097,1.367,4.915,7.906,84.0,10.15,36.95
0.094,2.093,4.915,7.899,84.0,10.18,37.02
0.078,1.16,4.915,7.896,84.0,10.18,37.06
0.113,0.912,4.915,7.891,84.0,10.18,37.2
0.033,0.787,4.917,7.886,84.0,10.18,37.31
0.401,1.305,4.918,7.884,84.0,10.17,37.62
0.003,0.497,4.92,7.881,84.0,10.17,37.94
0.013,0.704,4.922,7.879,84.0,10.18,38.21
0.067,0.435,4.937,7.878,84.0,10.18,38.36
0.224,0.58,4.941,7.878,84.0,10.18,38.4
0.079,0.228,4.942,7.878,84.0,10.18,38.41
-0.035,0.746,4.941,7.876,84.0,10.18,38.46
-0.031,1.015,4.936,7.875,84.0,10.17,38.38
-0.044,1.098,4.928,7.875,84.0,10.17,38.36
0.005,0.87,4.919,7.875,84.0,10.18,38.41
-0.066,1.222,4.909,7.874,84.0,10.16,38.43
0.333,1.202,4.897,7.873,84.0,10.16,38.45
-0.085,1.036,4.876,7.87,84.0,10.16,38.43
-0.057,0.746,4.851,7.869,84.0,10.16,38.29
0.019,0.477,4.821,7.866,84.0,10.15,38.14
0.172,0.684,4.82,7.864,84.0,10.15,38.03
0.04,0.746,4.822,7.861,84.0,10.15,37.84
-0.061,1.015,4.839,7.858,84.0,10.16,37.59
-0.053,0.559,4.882,7.856,84.0,10.17,37.42
-0.068,0.414,4.909,7.852,84.0,10.16,37.15
-0.071,0.725,4.934,7.848,84.0,10.16,36.96
-0.022,0.891,4.941,7.842,84.0,10.16,36.9
-0.1,0.891,4.937,7.839,84.0,10.16,36.73
0.32,0.891,4.931,7.834,84.0,10.16,36.75
-0.103,0.518,4.931,7.829,84.0,10.16,36.75
-0.077,0.207,4.932,7.824,84.0,10.16,36.7
-0.008,0.104,4.928,7.819,78.0,10.17,36.7
0.137,0.456,4.923,7.813,78.0,10.18,36.71
-0.017,0.228,4.92,7.807,78.0,10.17,36.55
-0.111,0.249,4.917,7.802,78.0,10.17,36.51
-0.121,0.539,4.908,7.797,78.0,10.17,36.57
-0.135,0.228,4.901,7.789,78.0,10.18,36.41
-0.145,0.228,4.896,7.784,78.0,10.17,36.17
-0.093,0.228,4.895,7.779,78.0,10.17,36.19
-0.157,0.249,4.892,7.775,78.0,10.18,36.24
0.186,0.477,4.888,7.77,78.0,10.18,36.12
-0.115,0.456,4.885,7.767,78.0,10.18,36.11
-0.156,0.228,4.883,7.765,78.0,10.18,36.08
-0.101,0.166,4.882,7.767,75.0,10.18,36.01
0.048,0.145,4.88,7.77,75.0,10.18,36.0
-0.023,0.145,4.876,7.778,75.0,10.18,36.03
-0.162,0.228,4.867,7.789,75.0,10.18,35.97
-0.162,0.186,4.86,7.804,75.0,10.18,35.95
-0.182,0.456,4.854,7.821,75.0,10.17,35.93
-0.205,0.456,4.85,7.843,75.0,10.17,35.87
-0.177,0.725,4.845,7.867,75.0,10.19,35.72
-0.181,0.414,4.837,7.891,75.0,10.15,35.6
-0.248,0.394,4.834,7.916,75.0,10.12,35.79
0.195,0.435,4.83,7.941,75.0,10.17,35.99
-0.241,0.228,4.831,7.965,75.0,10.19,35.85
-0.201,0.207,4.825,7.987,75.0,10.19,36.0
-0.077,0.207,4.829,8.007,75.0,10.17,35.93
-0.004,0.228,4.825,8.027,75.0,10.16,36.14
-0.217,0.186,4.825,8.045,75.0,10.18,35.98
-0.236,0.228,4.821,8.06,75.0,10.18,35.79
-0.237,0.186,4.823,8.075,75.0,10.18,35.85
-0.261,0.186,4.825,8.089,75.0,10.17,35.99
-0.225,0.186,4.825,8.099,75.0,10.18,36.08
-0.256,0.186,4.82,8.111,75.0,10.18,36.2
-0.246,0.331,4.816,8.119,75.0,10.18,36.51
0.03,0.394,4.811,8.122,75.0,10.18,36.76
-0.288,0.228,4.806,8.124,75.0,10.18,36.92
-0.234,0.228,4.799,8.124,75.0,10.18,37.09
-0.093,0.166,4.792,8.124,78.0,10.17,37.22
-0.069,0.249,4.784,8.122,78.0,10.17,37.34
-0.252,0.477,4.779,8.118,78.0,10.17,37.47
-0.257,0.684,4.774,8.111,78.0,10.17,37.56
-0.252,1.036,4.772,8.105,78.0,10.18,37.66
-0.2,0.849,4.768,8.098,78.0,10.18,37.8
-0.278,1.036,4.764,8.088,78.0,10.18,37.89
0.098,0.994,4.763,8.076,78.0,10.19,37.96
-0.252,0.746,4.761,8.066,78.0,10.18,38.1
-0.23,0.518,4.757,8.054,78.0,10.18,38.22
-0.16,0.435,4.753,8.044,86.0,10.18,38.26
0.0,1.243,4.748,8.033,86.0,10.19,38.24
-0.115,1.43,4.744,8.019,86.0,10.18,38.09
-0.236,0.932,4.742,8.007,86.0,10.18,37.93
-0.222,0.622,4.738,7.994,86.0,10.19,37.83
-0.225,0.58,4.734,7.982,86.0,10.19,37.55
-0.193,0.725,4.729,7.969,86.0,10.19,37.38
-0.195,0.787,4.724,7.957,86.0,10.21,37.22
-0.255,0.642,4.719,7.946,86.0,10.21,37.03
0.194,0.704,4.716,7.935,86.0,10.21,37.0
-0.219,0.539,4.714,7.922,86.0,10.19,37.0
-0.163,0.704,4.711,7.912,86.0,10.21,36.95
-0.032,0.684,4.711,7.902,81.0,10.21,36.89
0.028,0.435,4.705,7.892,81.0,10.19,36.88
-0.166,0.518,4.698,7.885,81.0,10.19,36.9
-0.161,0.539,4.698,7.876,81.0,10.21,36.72
-0.168,0.435,4.698,7.871,81.0,10.19,36.58
-0.184,0.787,4.697,7.868,81.0,10.19,36.64
-0.157,0.29,4.696,7.869,81.0,10.19,36.39
-0.127,0.435,4.688,7.874,81.0,10.19,36.17
-0.218,0.642,4.689,7.882,81.0,10.19,36.38
0.233,0.725,4.693,7.895,81.0,10.18,36.22
-0.192,0.912,4.683,7.91,81.0,10.19,36.03
-0.16,0.912,4.686,7.928,81.0,10.21,36.19
-0.06,0.414,4.69,7.95,76.0,10.19,36.18
0.067,0.477,4.684,7.971,76.0,10.21,36.21
-0.126,0.373,4.689,7.992,76.0,10.21,36.25
-0.167,0.145,4.687,8.013,76.0,10.19,36.24
-0.16,0.849,4.681,8.034,76.0,10.19,36.29
-0.17,0.684,4.676,8.054,76.0,10.19,36.23
-0.173,0.849,4.671,8.074,76.0,10.21,36.2
-0.148,0.58,4.676,8.094,76.0,10.19,36.17
-0.13,0.767,4.674,8.118,76.0,10.19,36.1
-0.226,1.057,4.672,8.136,76.0,10.19,36.12
0.226,0.974,4.665,8.155,76.0,10.21,36.19
-0.213,2.797,4.66,8.17,76.0,10.22,36.2
-0.177,0.725,4.662,8.183,76.0,10.19,36.13
-0.078,0.456,4.652,8.193,71.0,10.18,36.19
0.021,0.456,4.647,8.202,71.0,10.19,36.27
-0.183,0.808,4.646,8.207,71.0,10.21,36.39
-0.217,1.326,4.642,8.21,71.0,10.19,36.47
-0.225,1.14,4.636,8.214,71.0,10.21,36.57
-0.234,0.414,4.636,8.214,71.0,10.22,36.6
-0.171,0.787,4.632,8.212,71.0,10.21,36.58
-0.244,0.849,4.634,8.207,71.0,10.19,36.69
0.112,1.036,4.632,8.202,71.0,10.19,36.85
-0.233,1.119,4.627,8.196,71.0,10.19,37.0
-0.217,0.787,4.626,8.187,71.0,10.21,37.17
-0.143,0.829,4.626,8.181,80.0,10.21,37.28
0.021,0.849,4.622,8.171,80.0,10.21,37.33
-0.083,0.58,4.613,8.161,80.0,10.19,37.46
-0.196,0.994,4.603,8.15,80.0,10.21,37.53
-0.176,1.326,4.596,8.137,80.0,10.19,37.58
-0.181,0.311,4.589,8.123,80.0,10.19,37.58
-0.129,0.518,4.583,8.11,80.0,10.21,37.47
-0.172,0.435,4.574,8.096,80.0,10.21,37.32
0.035,0.58,4.565,8.083,80.0,10.21,37.27
0.006,0.518,4.56,8.069,80.0,10.21,37.21
-0.156,0.435,4.557,8.056,80.0,10.21,37.06
-0.083,0.497,4.55,8.043,83.0,10.21,36.93
0.076,0.228,4.55,8.031,83.0,10.19,36.92
0.042,0.249,4.56,8.017,83.0,10.21,36.93
-0.098,0.29,4.555,8.004,83.0,10.21,36.8
-0.083,0.456,4.565,7.993,83.0,10.21,36.72
-0.085,0.477,4.563,7.979,83.0,10.21,36.68
-0.095,0.58,4.57,7.968,83.0,10.21,36.53
-0.072,0.249,4.565,7.957,83.0,10.18,36.36
-0.038,0.932,4.562,7.946,83.0,10.17,36.31
-0.131,0.891,4.559,7.935,83.0,10.18,36.34
0.328,0.994,4.554,7.925,83.0,10.21,36.2
-0.102,0.767,4.541,7.915,83.0,10.21,36.18
-0.066,0.87,4.543,7.905,83.0,10.21,36.25
0.042,0.746,4.543,7.895,83.0,10.21,36.18
0.166,0.994,4.542,7.885,83.0,10.21,36.09
-0.038,1.243,4.538,7.877,83.0,10.19,36.19
-0.077,0.912,4.538,7.869,83.0,10.18,36.21
-0.078,0.642,4.542,7.862,83.0,10.19,36.14
-0.094,0.373,4.544,7.854,83.0,10.19,36.17
-0.097,0.746,4.555,7.847,83.0,10.18,36.17
-0.055,0.642,4.559,7.839,83.0,10.19,36.16
-0.069,0.352,4.56,7.832,83.0,10.21,36.15
-0.089,0.808,4.565,7.824,75.0,10.19,36.09
0.295,1.678,4.574,7.817,75.0,10.19,36.11
-0.101,1.057,4.583,7.81,75.0,10.18,36.11
-0.053,0.435,4.58,7.804,75.0,10.18,36.07
0.076,0.394,4.57,7.797,75.0,10.18,36.08
0.123,0.373,4.55,7.79,75.0,10.18,36.09
-0.072,0.269,4.527,7.783,75.0,10.18,36.1
-0.079,0.228,4.511,7.777,75.0,10.18,36.13
-0.088,0.331,4.499,7.771,75.0,10.18,36.13
-0.105,0.539,4.493,7.765,75.0,10.19,36.07
-0.113,0.207,4.488,7.76,75.0,10.19,36.01
-0.098,0.249,4.483,7.752,75.0,10.18,35.96
-0.067,0.269,4.476,7.747,75.0,10.18,35.98
-0.155,0.269,4.473,7.74,75.0,10.18,35.99
0.274,0.663,4.464,7.733,75.0,10.18,36.07
-0.136,0.787,4.458,7.727,75.0,10.18,36.22
-0.109,0.435,4.453,7.721,75.0,10.18,36.33
-0.004,0.456,4.448,7.715,75.0,10.18,36.42
0.12,0.497,4.439,7.71,75.0,10.18,36.52
-0.078,0.352,4.432,7.705,75.0,10.18,36.65
-0.122,0.29,4.426,7.7,75.0,10.18,36.74
-0.109,0.166,4.417,7.695,75.0,10.18,36.84
-0.119,0.186,4.411,7.692,75.0,10.18,36.95
-0.054,0.228,4.404,7.691,75.0,10.18,36.95
-0.099,0.414,4.395,7.687,75.0,10.18,36.96
0.083,0.373,4.389,7.684,75.0,10.19,36.99
0.079,0.311,4.38,7.68,75.0,10.18,36.95
-0.086,0.414,4.372,7.677,75.0,10.21,36.87
-0.024,0.477,4.362,7.673,75.0,10.23,36.76
0.126,0.435,4.355,7.668,75.0,10.24,36.73
0.097,0.435,4.351,7.663,75.0,10.23,36.62
-0.065,0.435,4.344,7.66,75.0,10.23,36.4
-0.057,0.601,4.339,7.657,75.0,10.24,36.39
-0.06,0.414,4.334,7.653,75.0,10.24,36.27
-0.076,0.725,4.327,7.65,75.0,10.26,36.07
-0.073,1.45,4.323,7.645,75.0,10.26,36.07
-0.045,0.808,4.318,7.643,80.0,10.24,35.99
-0.045,0.829,4.316,7.639,80.0,10.24,35.98
-0.104,0.601,4.312,7.635,80.0,10.24,35.96
0.33,0.684,4.308,7.63,80.0,10.24,35.98
-0.082,0.539,4.304,7.625,80.0,10.24,35.98
-0.035,0.663,4.299,7.62,80.0,10.24,36.06
0.093,0.622,4.294,7.617,80.0,10.23,36.06
0.163,0.974,4.292,7.613,80.0,10.24,35.99
-0.039,1.119,4.299,7.608,80.0,10.23,36.12
-0.056,0.642,4.315,7.603,80.0,10.15,36.08
-0.065,1.14,4.323,7.598,80.0,10.16,35.96
-0.091,0.932,4.314,7.593,70.0,10.16,36.14
-0.097,0.767,4.32,7.589,70.0,10.17,35.98
-0.1,0.684,4.323,7.583,70.0,10.16,36.11
-0.112,0.58,4.336,7.578,70.0,10.15,36.12
-0.098,0.539,4.369,7.573,70.0,10.16,36.13
-0.074,0.891,4.385,7.568,70.0,10.15,36.11
-0.168,0.704,4.397,7.563,70.0,10.13,36.21
0.273,0.497,4.405,7.558,70.0,10.13,36.38
-0.139,0.269,4.411,7.553,70.0,10.13,36.47
-0.098,0.497,4.42,7.548,70.0,10.12,36.53
0.008,0.767,4.427,7.546,62.0,10.13,36.75
0.119,0.808,4.431,7.54,62.0,10.16,36.88
-0.083,0.518,4.433,7.536,62.0,10.16,36.97
-0.126,0.394,4.444,7.529,62.0,10.16,37.14
-0.121,0.559,4.452,7.523,62.0,10.16,37.23
-0.135,0.787,4.459,7.521,62.0,10.17,37.31
-0.082,0.477,4.467,7.516,62.0,10.17,37.38
-0.127,0.331,4.47,7.511,62.0,10.16,37.5
0.087,0.539,4.471,7.506,62.0,10.17,37.62
0.009,0.456,4.467,7.503,62.0,10.18,37.62
-0.11,0.414,4.458,7.499,62.0,10.18,37.69
-0.04,0.352,4.452,7.494,79.0,10.18,37.74
0.116,0.352,4.446,7.489,79.0,10.18,37.71
0.077,0.601,4.437,7.485,79.0,10.18,37.68
-0.078,0.704,4.436,7.48,79.0,10.19,37.62
-0.066,0.704,4.439,7.476,79.0,10.19,37.51
-0.069,0.808,4.448,7.471,79.0,10.19,37.43
-0.079,0.808,4.452,7.469,79.0,10.21,37.24
-0.014,0.684,4.452,7.465,79.0,10.21,37.11
-0.071,0.912,4.452,7.466,79.0,10.21,37.01
0.26,0.829,4.45,7.469,79.0,10.18,36.88
0.005,0.477,4.448,7.475,79.0,10.12,36.67
-0.061,0.622,4.447,7.486,79.0,10.08,36.56
0.003,0.725,4.447,7.501,79.0,10.07,36.48
0.171,0.373,4.443,7.524,79.0,10.08,36.43
0.102,0.311,4.441,7.554,79.0,10.1,36.44
-0.051,0.559,4.44,7.589,79.0,10.13,36.42
-0.04,0.477,4.441,7.63,78.0,10.13,36.4
-0.039,0.228,4.441,7.676,78.0,10.11,36.29
-0.052,0.228,4.437,7.729,78.0,10.1,36.29
-0.056,0.29,4.443,7.784,78.0,10.1,36.3
-0.009,0.456,4.441,7.84,78.0,10.12,36.11
-0.03,0.435,4.437,7.898,78.0,10.18,36.12
0.003,0.497,4.438,7.953,78.0,10.19,36.16
0.289,0.477,4.432,8.004,78.0,10.18,36.07
-0.054,0.394,4.431,8.054,78.0,10.19,36.02
-0.007,0.228,4.435,8.101,78.0,10.21,36.01
0.13,0.269,4.439,8.146,70.0,10.19,36.02
0.152,0.622,4.448,8.189,70.0,10.16,35.99
-0.054,0.725,4.452,8.226,70.0,10.15,36.01
-0.084,0.891,4.459,8.263,70.0,10.17,36.03
-0.089,1.181,4.473,8.295,70.0,10.19,35.98
-0.114,1.057,4.486,8.324,70.0,10.16,35.93
-0.083,1.243,4.492,8.35,70.0,10.12,35.94
-0.1,1.057,4.498,8.37,70.0,10.15,35.99
-0.118,0.87,4.511,8.385,70.0,10.21,36.34
0.207,1.036,4.526,8.397,70.0,10.21,36.45
-0.132,1.202,4.527,8.404,70.0,10.19,36.63
-0.089,0.932,4.531,8.41,70.0,10.19,36.89
0.058,0.932,4.544,8.41,77.0,10.19,37.27
0.089,0.622,4.563,8.407,77.0,10.19,37.39
-0.102,1.057,4.571,8.406,77.0,10.17,37.48
-0.105,0.87,4.578,8.398,77.0,10.15,37.49
-0.097,0.746,4.583,8.392,77.0,10.15,37.44
-0.106,0.642,4.591,8.382,77.0,10.15,37.29
-0.111,0.539,4.595,8.37,77.0,10.15,37.25
-0.042,0.746,4.599,8.362,77.0,10.13,37.26
-0.103,0.622,4.603,8.356,77.0,10.15,37.15
0.311,0.767,4.611,8.35,77.0,10.16,37.0
-0.075,1.077,4.615,8.348,77.0,10.18,36.98
-0.069,0.891,4.613,8.349,77.0,10.15,36.78
0.007,1.036,4.609,8.354,73.0,10.1,36.68
0.175,1.264,4.609,8.359,73.0,10.08,36.68
0.059,1.409,4.61,8.365,73.0,10.11,36.56
-0.071,0.725,4.613,8.375,73.0,10.13,36.37
-0.075,1.077,4.627,8.385,73.0,10.13,36.26
-0.068,1.14,4.634,8.397,73.0,10.13,36.29
-0.073,0.994,4.637,8.409,73.0,10.13,36.26
-0.065,0.994,4.635,8.431,73.0,10.15,36.22
-0.015,0.746,4.635,8.455,73.0,10.16,36.18
0.021,1.14,4.645,8.463,73.0,10.18,36.21
-0.054,1.637,4.649,8.472,73.0,10.17,36.32
0.407,1.347,4.655,8.479,73.0,10.13,36.36
-0.024,1.119,4.666,8.485,73.0,10.13,36.3
0.008,0.912,4.671,8.481,73.0,10.16,36.23
0.111,0.746,4.674,8.481,73.0,10.17,36.4
0.203,0.767,4.677,8.485,73.0,10.17,36.75
-0.037,1.45,4.679,8.488,73.0,10.18,36.85
-0.088,2.756,4.679,8.449,68.0,10.17,36.9
-0.093,1.533,4.676,8.377,68.0,10.16,36.93
-0.118,1.885,4.671,8.328,68.0,10.18,37.1
-0.126,1.885,4.665,8.294,68.0,10.18,37.24
-0.086,1.202,4.656,8.288,68.0,10.17,37.47
-0.155,2.196,4.636,8.279,68.0,10.18,37.75
0.215,2.113,4.612,8.299,68.0,10.21,37.92
-0.109,1.285,4.595,8.324,68.0,10.19,38.07
-0.036,1.305,4.58,8.329,68.0,10.18,38.28
0.149,1.305,4.573,8.32,76.0,10.19,38.42
0.404,1.347,4.56,8.305,76.0,10.21,38.26
0.373,1.616,4.554,8.288,76.0,10.18,38.02
0.5,2.403,4.558,8.268,76.0,10.18,37.71
0.619,0.684,4.564,8.264,76.0,10.19,37.17
0.724,0.518,4.568,8.239,76.0,10.19,36.31
0.8,0.435,4.565,8.208,76.0,10.18,35.61
0.74,0.663,4.562,8.186,76.0,10.18,35.48
1.18,0.601,4.559,8.17,76.0,10.18,35.54
0.816,0.787,4.565,8.161,76.0,10.19,35.44
0.951,0.642,4.583,8.162,76.0,10.17,35.31
1.093,0.787,4.599,8.175,76.0,10.18,35.18
1.305,1.119,4.608,8.198,76.0,10.18,35.13
1.42,1.388,4.617,8.228,76.0,10.18,34.94
1.699,1.202,4.623,8.271,76.0,10.18,34.78
2.154,1.243,4.633,8.336,76.0,10.18,34.66
2.426,1.471,4.643,8.423,76.0,10.18,34.77
2.782,1.264,4.653,8.525,76.0,10.18,34.86
2.957,1.077,4.665,8.653,76.0,10.17,34.73
3.54,1.285,4.683,8.812,76.0,10.17,34.56
3.329,0.394,4.707,9.019,76.0,10.17,34.72
3.478,1.347,4.734,9.235,76.0,10.17,34.64
3.679,1.616,4.774,9.411,76.0,10.16,34.57
3.898,0.808,4.828,9.59,76.0,10.16,34.39
3.712,0.684,4.888,9.833,76.0,10.17,34.33
3.489,1.823,4.955,10.068,76.0,10.17,34.16
3.32,0.912,5.034,10.255,76.0,10.17,34.07
3.102,1.243,5.123,10.401,76.0,10.18,33.82
2.911,1.098,5.228,10.571,76.0,10.17,33.55
2.719,0.808,5.321,10.727,76.0,10.17,33.57
2.434,1.948,5.402,10.881,76.0,10.18,33.82
2.674,1.554,5.487,11.118,76.0,10.17,33.81
2.039,1.036,5.582,11.331,76.0,10.17,34.3
1.87,1.264,5.673,11.479,76.0,10.17,34.77
1.797,1.222,5.747,11.585,76.0,10.17,35.34
1.767,1.388,5.799,11.67,76.0,10.17,35.76
1.374,1.243,5.801,11.743,76.0,10.17,36.29
1.153,0.912,5.796,11.835,76.0,10.16,36.85
1.0,0.849,5.813,11.869,76.0,10.16,37.08
0.852,1.098,5.859,11.891,76.0,10.17,37.01
0.742,1.16,5.92,11.904,76.0,10.17,37.1
0.505,1.802,6.04,11.906,76.0,10.16,37.1
0.773,1.906,6.103,11.9,76.0,10.17,37.02
0.253,1.285,6.201,11.89,76.0,10.17,36.92
0.184,1.388,6.258,11.852,76.0,10.17,36.92
0.176,1.036,6.285,11.811,76.0,10.17,37.08
0.214,1.492,6.308,11.748,76.0,10.17,37.31
-0.083,1.823,6.346,11.695,76.0,10.18,37.24
-0.216,1.575,6.382,11.628,76.0,10.17,37.06
-0.3,1.492,6.402,11.563,76.0,10.16,36.92
-0.391,2.362,6.416,11.502,76.0,10.18,36.69
-0.436,1.512,6.421,11.455,76.0,10.17,36.24
-0.485,2.238,6.426,11.411,76.0,10.16,36.05
-0.644,2.383,6.436,11.378,76.0,10.17,36.05
-0.21,1.657,6.353,11.364,76.0,10.18,35.92
-0.72,1.554,6.216,11.363,76.0,10.17,35.72
-0.736,1.948,6.179,11.388,76.0,10.17,35.52
-0.677,1.409,6.398,11.431,76.0,10.17,35.34
-0.618,1.968,6.455,11.492,76.0,10.16,35.13
-0.877,2.238,6.456,11.578,76.0,10.16,35.14
-0.947,1.782,6.519,11.691,76.0,10.16,35.16
-0.985,1.409,6.547,11.829,76.0,10.13,35.12
-1.039,1.802,6.574,11.987,76.0,10.12,35.03
-1.079,1.14,6.607,12.178,76.0,10.12,34.85
-1.029,1.616,6.641,12.384,76.0,10.12,34.55
-1.141,0.994,6.681,12.598,76.0,10.08,34.33
-0.754,1.367,6.744,12.831,76.0,10.07,34.1
-1.196,0.767,6.806,13.045,76.0,10.07,34.2
-1.2,1.015,6.878,13.244,76.0,10.07,33.94
-1.154,1.367,6.945,13.434,76.0,10.07,34.0
-1.008,1.16,7.015,13.64,76.0,10.07,34.59
-1.148,1.16,7.091,13.812,76.0,10.07,34.72
-1.284,0.539,7.173,13.942,76.0,10.06,34.39
-1.309,1.057,7.241,14.083,76.0,10.05,34.68
-1.34,1.036,7.307,14.184,76.0,10.06,34.82
-1.362,0.974,7.366,14.231,76.0,10.06,34.62
-1.319,0.559,7.429,14.26,76.0,10.07,34.88
-1.421,0.663,7.498,14.304,76.0,10.06,34.92
-1.036,0.787,7.552,14.328,76.0,10.06,34.87
-1.442,0.663,7.591,14.344,76.0,10.06,34.89
-1.447,0.518,7.646,14.301,76.0,10.06,35.44
-1.397,0.352,7.72,14.233,76.0,10.06,35.38
-1.241,0.704,7.784,14.149,76.0,10.05,35.41
-1.361,0.497,7.835,14.08,76.0,10.05,35.82
-1.495,0.704,7.872,13.988,76.0,10.05,35.86
-1.495,0.58,7.904,13.88,76.0,10.05,35.86
-1.511,0.518,7.939,13.774,76.0,10.05,36.16
-1.444,0.352,7.958,13.662,76.0,10.05,36.38
-1.526,0.456,7.998,13.557,76.0,10.05,36.62
-1.142,0.787,8.038,13.452,76.0,10.05,36.93
-1.519,0.725,8.055,13.349,76.0,10.06,37.05
-1.48,0.808,8.061,13.23,76.0,10.05,37.15
-1.394,0.311,8.07,13.104,76.0,10.05,37.26
-1.215,0.414,8.087,12.981,76.0,10.05,37.37
-1.321,0.518,8.089,12.863,76.0,10.06,37.51
-1.419,0.704,8.08,12.751,76.0,10.06,37.52
-1.395,0.746,8.07,12.641,76.0,10.06,37.56
-1.367,0.725,8.048,12.533,76.0,10.06,37.55
-1.302,0.601,8.027,12.432,76.0,10.06,37.4
-1.372,0.642,8.01,12.337,76.0,10.06,37.26
-0.925,0.787,7.993,12.244,76.0,10.06,37.12
-1.31,0.912,7.977,12.147,76.0,10.05,37.01
-1.25,0.725,7.96,12.05,76.0,10.05,36.88
-1.125,0.642,7.937,11.959,76.0,10.05,36.68
-0.954,0.207,7.904,11.874,76.0,10.06,36.59
-1.124,0.456,7.871,11.791,76.0,10.06,36.49
-1.132,0.373,7.838,11.711,76.0,10.06,36.4
-1.09,0.559,7.813,11.632,76.0,10.06,36.28
-1.07,0.58,7.795,11.553,76.0,10.06,36.11
-0.99,0.29,7.79,11.478,76.0,10.05,35.91
-1.01,0.124,7.779,11.408,76.0,10.05,35.81
-0.925,0.29,7.761,11.339,76.0,10.05,35.66
-0.669,0.622,7.737,11.275,76.0,10.05,35.56
-0.962,0.29,7.711,11.21,76.0,10.05,35.45
-0.886,0.269,7.684,11.147,76.0,10.05,35.32
-0.733,0.311,7.65,11.088,76.0,10.05,35.24
-0.715,0.435,7.61,11.031,76.0,10.05,35.11
-0.866,0.953,7.573,10.977,76.0,10.05,35.02
-0.846,1.202,7.538,10.923,76.0,10.05,34.97
-0.841,0.414,7.505,10.867,76.0,10.05,34.86
-0.839,0.58,7.474,10.813,76.0,10.05,34.78
-0.763,0.767,7.44,10.764,76.0,10.05,34.66
-0.8,0.787,7.409,10.714,76.0,10.05,34.62
-0.526,0.58,7.377,10.666,76.0,10.06,34.74
-0.609,0.704,7.343,10.618,76.0,10.06,34.75
-0.732,0.601,7.316,10.574,76.0,10.05,34.67
-0.663,0.456,7.286,10.529,78.0,10.05,34.74
-0.504,0.394,7.26,10.504,78.0,10.05,34.88
-0.548,0.373,7.235,10.488,78.0,10.05,34.86
-0.715,0.352,7.21,10.463,78.0,10.05,34.82
-0.723,0.186,7.183,10.418,78.0,10.05,34.85
-0.73,0.518,7.157,10.401,78.0,10.05,34.84
-0.732,0.435,7.128,10.406,78.0,10.05,34.78
-0.653,0.622,7.103,10.402,78.0,10.05,34.78
-0.736,0.331,7.081,10.377,78.0,10.06,34.92
-0.335,0.456,7.061,10.352,78.0,10.07,35.13
-0.724,0.331,7.039,10.329,78.0,10.08,35.33
-0.674,0.373,7.018,10.305,78.0,10.08,35.55
-0.587,0.352,6.998,10.279,79.0,10.07,35.82
-0.42,0.58,6.98,10.248,79.0,10.08,36.03
-0.546,0.311,6.961,10.217,79.0,10.08,36.18
-0.628,0.207,6.941,10.187,79.0,10.08,36.31
-0.605,0.518,6.919,10.157,79.0,10.08,36.38
-0.593,0.186,6.897,10.129,79.0,10.08,36.49
-0.524,0.435,6.876,10.1,79.0,10.1,36.55
-0.594,0.29,6.856,10.072,79.0,10.1,36.57
-0.166,0.642,6.836,10.044,79.0,10.08,36.64
-0.543,0.497,6.827,10.019,79.0,10.1,36.7
-0.485,0.29,6.819,9.994,79.0,10.08,36.57
-0.373,0.352,6.804,9.968,85.0,10.1,36.46
-0.214,0.249,6.79,9.945,85.0,10.1,36.3
-0.38,0.352,6.767,9.918,85.0,10.08,36.13
-0.418,0.331,6.741,9.894,85.0,10.08,36.04
-0.393,0.186,6.704,9.87,85.0,10.08,35.86
-0.396,0.186,6.64,9.847,85.0,10.08,35.53
-0.372,0.352,6.553,9.824,85.0,10.1,35.43
-0.315,0.311,6.471,9.801,85.0,10.08,35.36
-0.4,0.269,6.431,9.78,85.0,10.08,35.19
0.08,0.559,6.386,9.757,85.0,10.1,35.06
-0.345,0.186,6.34,9.737,85.0,10.1,34.79
-0.293,0.186,6.298,9.717,85.0,10.1,34.74
-0.173,0.145,6.257,9.696,85.0,10.08,34.78
-0.037,0.228,6.235,9.674,85.0,10.08,34.73
-0.232,0.207,6.274,9.65,85.0,10.08,34.77
-0.254,0.207,6.222,9.629,85.0,10.08,34.75
-0.245,0.228,6.278,9.607,85.0,10.08,34.77
-0.25,0.228,6.273,9.583,85.0,10.08,34.8
-0.251,0.352,6.271,9.563,85.0,10.08,34.77
-0.176,0.311,6.256,9.543,85.0,10.08,34.77
-0.225,0.145,6.243,9.524,85.0,10.08,34.84
0.027,0.414,6.234,9.504,85.0,10.08,34.95
-0.078,0.435,6.222,9.486,85.0,10.08,34.96
-0.202,0.331,6.206,9.466,85.0,10.08,34.94
-0.136,0.414,6.193,9.449,85.0,10.08,34.95
0.024,0.435,6.185,9.432,85.0,10.1,34.96
0.001,0.373,6.174,9.414,85.0,10.1,34.94
-0.153,0.331,6.164,9.397,85.0,10.1,34.93
-0.137,0.539,6.153,9.379,85.0,10.07,35.01
-0.136,0.539,6.14,9.36,85.0,10.07,34.79
-0.147,0.518,6.129,9.345,85.0,10.07,34.85
-0.149,0.497,6.117,9.327,85.0,10.08,35.02
-0.093,0.559,6.113,9.311,85.0,10.08,34.82
-0.104,0.477,6.077,9.281,85.0,10.08,35.11
-0.077,0.663,6.074,9.278,85.0,10.07,35.16
0.209,0.808,6.076,9.261,85.0,10.07,35.4
-0.13,0.642,6.089,9.247,85.0,10.08,35.16
-0.081,0.787,6.098,9.234,85.0,10.07,35.08
0.055,0.642,6.168,9.22,85.0,10.07,35.38
0.084,0.725,6.147,9.21,85.0,10.07,35.36
-0.115,0.932,6.166,9.205,85.0,10.07,35.28
-0.12,0.435,6.182,9.206,85.0,10.07,35.5
-0.123,0.269,6.196,9.212,85.0,10.07,35.65
-0.134,0.145,6.211,9.228,85.0,10.07,35.62
-0.092,0.477,6.216,9.246,85.0,10.07,35.67
-0.09,0.808,6.213,9.289,85.0,10.07,35.96
-0.117,1.264,6.213,9.292,85.0,10.07,35.97
0.218,0.891,6.211,9.316,85.0,10.07,36.14
-0.111,0.497,6.202,9.341,85.0,10.07,36.32
0.063,0.559,6.176,9.366,85.0,10.07,36.53
0.129,0.601,6.16,9.387,85.0,10.07,36.76
0.128,0.704,6.161,9.407,85.0,10.07,36.87
-0.063,0.974,6.172,9.429,85.0,10.07,36.96
-0.063,0.642,6.183,9.445,85.0,10.07,37.05
-0.062,0.932,6.208,9.47,85.0,10.07,37.04
-0.058,0.829,6.209,9.47,85.0,10.07,37.03
-0.009,1.347,6.218,9.477,85.0,10.07,36.93
-0.097,1.036,6.229,9.481,85.0,10.08,36.81
0.325,0.746,6.243,9.481,85.0,10.08,36.75
-0.069,0.891,6.257,9.477,85.0,10.08,36.65
-0.022,0.953,6.267,9.471,85.0,10.07,36.6
0.087,0.704,6.274,9.463,85.0,10.07,36.44
0.229,1.202,6.283,9.453,85.0,10.07,36.37
0.035,0.808,6.291,9.441,85.0,10.07,36.3
-0.005,0.642,6.296,9.43,85.0,10.07,36.24
0.01,0.932,6.306,9.415,85.0,10.07,36.23
0.002,1.077,6.315,9.4,85.0,10.07,36.03
0.0,1.119,6.318,9.382,85.0,10.07,35.91
0.044,0.808,6.269,9.362,85.0,10.07,35.87
0.057,0.87,6.222,9.341,85.0,10.07,35.79
-0.002,0.725,6.215,9.317,85.0,10.07,35.74
0.463,0.642,6.221,9.293,85.0,10.07,35.68
0.037,0.746,6.257,9.269,85.0,10.07,35.64
0.09,0.704,6.265,9.244,85.0,10.07,35.66
0.221,1.181,6.261,9.22,85.0,10.07,35.68
0.3,0.849,6.256,9.196,85.0,10.07,35.65
0.092,0.767,6.253,9.172,85.0,10.07,35.64
0.079,1.222,6.248,9.149,85.0,10.07,35.62
0.083,1.077,6.242,9.126,85.0,10.07,35.51
0.062,0.994,6.238,9.103,85.0,10.07,35.44
0.06,1.077,6.23,9.08,85.0,10.07,35.39
0.064,1.202,6.212,9.055,85.0,10.07,35.34
0.093,1.057,6.196,9.031,85.0,10.08,35.37
0.126,1.16,6.186,9.01,85.0,10.08,35.35
0.456,1.243,6.181,8.988,85.0,10.08,35.33
0.461,1.16,6.172,8.965,85.0,10.08,35.37
0.084,1.098,6.166,8.944,85.0,10.08,35.42
0.123,0.601,6.156,8.923,85.0,10.1,35.5
0.238,0.725,6.145,8.903,85.0,10.1,35.48
0.369,1.015,6.121,8.866,85.0,10.08,35.42
0.155,0.539,6.121,8.864,85.0,10.07,35.41
0.1,0.497,6.11,8.845,85.0,10.07,35.4
0.09,0.746,6.1,8.827,85.0,10.07,35.45
0.065,0.497,6.088,8.809,85.0,10.08,35.44
0.052,1.222,6.077,8.794,85.0,10.08,35.37
0.048,0.373,6.065,8.776,85.0,10.07,35.39
0.034,0.331,6.055,8.759,85.0,10.11,35.56
0.067,0.518,6.044,8.744,85.0,10.11,35.62
0.071,0.269,6.033,8.727,85.0,10.07,35.5
0.128,0.497,6.024,8.713,85.0,10.1,35.4
0.36,0.518,6.014,8.697,85.0,10.11,35.98
0.051,0.601,6.025,8.683,85.0,10.1,35.9
0.103,0.539,6.037,8.669,85.0,10.11,36.01
0.236,0.787,6.038,8.654,85.0,10.12,36.6
0.277,0.767,6.008,8.64,85.0,10.11,36.81
0.073,0.767,5.971,8.625,85.0,10.1,36.85
0.068,0.497,5.938,8.61,85.0,10.08,37.1
0.068,0.829,5.922,8.595,85.0,10.07,37.57
0.057,0.787,5.912,8.583,85.0,10.07,37.56
0.117,0.601,5.885,8.571,85.0,10.08,37.52
0.035,0.849,5.849,8.559,85.0,10.1,37.71
0.441,0.622,5.821,8.55,85.0,10.1,37.46
0.044,0.725,5.789,8.538,85.0,10.08,37.26
0.08,0.331,5.768,8.524,85.0,10.08,37.31
0.155,0.311,5.762,8.51,85.0,10.08,37.16
0.329,0.331,5.758,8.498,85.0,10.08,36.94
0.195,0.767,5.739,8.486,85.0,10.08,36.83
0.08,0.622,5.72,8.476,85.0,10.08,36.65
0.092,0.787,5.705,8.464,85.0,10.08,36.37
0.082,0.87,5.697,8.452,85.0,10.08,36.18
0.078,0.684,5.687,8.441,85.0,10.08,36.04
0.138,0.704,5.689,8.429,85.0,10.08,35.93
0.055,0.787,5.687,8.417,85.0,10.08,35.85
0.486,0.787,5.681,8.407,85.0,10.08,35.82
0.079,1.015,5.678,8.397,85.0,10.08,35.84
0.109,0.642,5.675,8.387,85.0,10.08,35.87
0.204,0.746,5.69,8.377,85.0,10.08,35.86
0.195,0.622,5.715,8.367,85.0,10.07,35.81
0.144,0.559,5.721,8.357,85.0,10.07,35.82
0.111,0.559,5.726,8.347,85.0,10.07,35.8
0.116,1.119,5.729,8.336,85.0,10.07,35.73
0.108,0.912,5.725,8.327,85.0,10.07,35.59
0.097,0.746,5.696,8.309,85.0,10.07,35.51
0.094,0.477,5.695,8.308,85.0,10.07,35.52
0.1,0.642,5.676,8.298,85.0,10.07,35.45
0.164,0.601,5.659,8.29,85.0,10.08,35.38
0.086,0.642,5.648,8.28,85.0,10.08,35.43
0.527,0.663,5.647,8.27,85.0,10.07,35.43
0.102,0.912,5.653,8.263,85.0,10.07,35.45
0.13,0.891,5.655,8.253,85.0,10.07,35.42
0.211,0.974,5.661,8.245,85.0,10.07,35.4
0.375,0.974,5.668,8.237,85.0,10.07,35.43
0.206,0.849,5.659,8.228,85.0,10.07,35.41
0.107,0.787,5.641,8.219,85.0,10.07,35.37
0.101,0.829,5.613,8.211,85.0,10.07,35.38
0.081,1.388,5.588,8.203,85.0,10.07,35.34
0.056,0.704,5.573,8.197,85.0,10.07,35.33
0.041,0.704,5.565,8.191,85.0,10.07,35.38
0.091,0.684,5.553,8.185,85.0,10.07,35.42
0.014,0.849,5.546,8.18,85.0,10.07,35.5
0.408,0.746,5.542,8.177,85.0,10.07,35.59
-0.003,0.725,5.542,8.176,85.0,10.07,35.75
0.023,0.456,5.532,8.179,85.0,10.07,35.84
0.093,0.601,5.516,8.182,70.0,10.07,35.96
0.263,0.539,5.495,8.188,70.0,10.07,36.15
0.126,0.456,5.487,8.201,70.0,10.07,36.2
-0.007,0.642,5.479,8.213,70.0,10.07,36.26
-0.004,0.787,5.468,8.227,70.0,10.07,36.36
-0.016,1.015,5.456,8.242,70.0,10.07,36.38
0.031,1.057,5.443,8.259,70.0,10.07,36.38
-0.025,0.725,5.426,8.276,70.0,10.07,36.46
0.219,0.746,5.415,8.292,70.0,10.07,36.6
0.076,0.829,5.407,8.306,70.0,10.07,36.7
-0.019,0.787,5.407,8.319,70.0,10.07,36.72
0.042,0.767,5.405,8.332,82.0,10.06,36.8
0.208,0.414,5.408,8.342,82.0,10.07,36.75
0.141,0.932,5.413,8.349,82.0,10.07,36.64
-0.021,0.746,5.423,8.356,82.0,10.07,36.57
-0.01,0.663,5.425,8.36,82.0,10.07,36.48
-0.011,0.456,5.429,8.364,82.0,10.07,36.33
-0.017,0.601,5.433,8.365,82.0,10.07,36.23
0.052,0.186,5.433,8.365,82.0,10.07,35.99
-0.021,0.29,5.426,8.363,82.0,10.07,35.94
0.416,0.559,5.419,8.359,82.0,10.07,35.93
