ECG,EMG,foot GSR,hand GSR,marker,RESP
-0.024,0.98675,9.172,16.0,9.23,45.73
-0.081,0.999625,9.158,15.963,9.34,45.59
0.225,1.0515,9.168,15.968,9.34,45.42
-0.103,1.00225,9.191,15.99,9.34,45.25
0.002,0.9815,9.176,15.937,9.34,45.05
0.196,0.9375,12.789,21.937,9.32,46.49
0.281,0.9245,13.022,22.236,9.3,46.58
-0.064,0.911625,13.119,22.273,9.32,46.61
-0.088,0.88825,13.174,22.233,9.3,46.62
-0.074,0.932375,13.203,22.154,9.29,46.6
-0.076,0.963375,13.238,22.097,9.29,46.59
-0.085,0.997125,13.271,22.034,9.29,46.55
-0.021,1.01525,13.297,21.968,9.28,46.55
-0.09,0.976375,13.317,21.902,9.29,46.55
0.211,1.020375,13.332,21.831,9.34,46.56
-0.114,1.023,13.343,21.761,9.38,46.59
-0.009,0.9375,13.35,21.694,9.34,46.61
0.18,0.947875,13.352,21.627,9.34,46.6
0.273,0.978875,13.352,21.56,9.33,46.6
-0.075,0.9375,13.35,21.494,9.34,46.64
-0.101,0.976375,13.345,21.432,9.34,46.69
-0.088,0.91675,13.336,21.369,9.33,46.76
-0.095,0.890875,13.326,21.309,9.33,46.85
-0.068,0.94525,13.313,21.252,9.34,46.99
-0.084,0.922,13.296,21.196,9.34,47.22
-0.08,0.90125,13.278,21.144,9.34,47.46
0.094,0.95825,13.257,21.093,9.34,47.67
-0.056,0.922,13.236,21.043,9.34,47.87
0.073,0.98675,13.211,20.996,9.34,48.09
0.309,0.9505,13.185,20.952,9.34,48.3
-0.031,1.03075,13.158,20.908,9.34,48.58
-0.12,1.067,13.128,20.867,9.34,48.85
-0.107,1.007375,13.097,20.827,9.35,49.07
-0.105,0.971125,13.066,20.79,9.35,49.21
-0.052,0.968625,13.032,20.753,9.36,49.34
-0.155,0.976375,13.0,20.72,9.36,49.54
0.131,0.963375,12.964,20.687,9.36,49.8
-0.127,0.9245,12.93,20.655,9.36,50.03
-0.03,0.867625,12.893,20.625,9.36,50.23
0.198,0.90125,12.858,20.595,9.36,50.39
0.158,0.91425,12.823,20.568,9.35,50.55
-0.131,1.012625,12.789,20.541,9.35,50.82
-0.141,0.997125,12.754,20.515,9.34,51.08
-0.124,0.9945,12.719,20.49,9.34,51.26
-0.065,0.98925,12.685,20.468,9.34,51.35
-0.167,1.048875,12.652,20.444,9.34,51.47
0.141,1.06175,12.621,20.424,9.34,51.84
-0.164,1.054,12.59,20.404,9.34,52.09
-0.047,0.96075,12.558,20.386,9.34,52.27
0.174,0.96075,12.529,20.369,9.34,52.4
0.164,1.01525,12.499,20.356,9.34,52.52
-0.143,0.98675,12.471,20.346,9.34,52.7
-0.158,0.940125,12.444,20.341,9.34,52.89
-0.127,0.88575,12.417,20.343,9.34,53.07
-0.087,0.841625,12.391,20.352,9.34,53.21
-0.192,0.91675,12.366,20.371,9.34,53.4
0.115,0.9245,12.343,20.398,9.34,53.59
-0.11,1.00225,12.32,20.437,9.34,53.75
-0.011,0.932375,12.3,20.486,9.34,53.87
0.263,0.966,12.281,20.548,9.34,54.02
0.044,0.947875,12.267,20.619,9.34,54.15
-0.152,1.067,12.255,20.699,9.33,54.26
-0.147,1.121375,12.249,20.784,9.33,54.4
-0.099,0.971125,12.249,20.875,9.34,54.51
-0.106,0.96075,12.255,20.963,9.34,54.64
-0.176,1.007375,12.27,21.051,9.34,54.75
0.148,0.971125,12.295,21.129,9.34,54.85
-0.088,0.940125,12.333,21.2,9.34,54.94
0.045,0.8805,12.378,21.263,9.33,54.99
0.311,0.85725,12.437,21.315,9.32,55.0
-0.032,0.865,12.505,21.356,9.32,55.0
-0.148,0.88825,12.586,21.388,9.32,54.97
-0.133,0.940125,12.67,21.411,9.3,54.92
-0.107,0.968625,12.764,21.426,9.3,54.8
-0.061,0.932375,12.858,21.432,9.29,54.72
-0.163,0.91675,12.955,21.432,9.29,54.65
0.161,1.054,13.049,21.423,9.29,54.59
-0.086,1.035875,13.144,21.411,9.29,54.52
0.004,0.96075,13.235,21.391,9.29,54.41
0.284,0.9945,13.323,21.368,9.29,54.27
0.1,0.971125,13.404,21.341,9.29,54.11
-0.119,0.997125,13.48,21.308,9.29,53.91
-0.117,1.007375,13.547,21.273,9.28,53.72
-0.098,0.942625,13.608,21.235,9.28,53.47
-0.095,0.8935,13.66,21.195,9.28,53.28
-0.044,0.8935,13.706,21.155,9.27,53.12
-0.139,0.90125,13.746,21.111,9.25,52.92
0.192,0.96075,13.777,21.067,9.18,52.7
-0.075,0.94525,13.802,21.022,9.19,52.43
0.01,0.911625,13.822,20.977,9.25,52.23
0.267,0.91675,13.836,20.93,9.24,52.0
0.18,0.9245,13.846,20.885,9.23,51.73
-0.096,1.00225,13.853,20.841,9.27,51.51
-0.1,0.966,13.857,20.796,9.35,51.32
-0.084,0.9815,13.854,20.752,9.4,51.07
-0.09,0.9375,13.849,20.71,9.24,50.85
-0.095,0.906375,13.841,20.67,9.29,50.64
-0.056,0.95825,13.829,20.633,9.23,50.47
-0.053,0.8935,13.815,20.597,9.28,50.32
-0.102,0.8805,13.799,20.566,9.23,50.15
0.219,0.839125,13.779,20.538,9.22,50.0
-0.03,0.808,13.756,20.512,9.43,49.86
0.093,0.87275,13.731,20.489,9.56,49.73
0.364,0.898625,13.703,20.47,9.49,49.61
0.051,0.88825,13.674,20.455,9.43,49.45
-0.073,0.88825,13.642,20.444,9.63,49.29
-0.061,0.91675,13.609,20.434,9.76,49.13
-0.054,0.903875,13.577,20.428,9.4,48.94
-0.061,0.9815,13.542,20.427,9.35,48.78
-0.064,1.012625,13.509,20.427,9.5,48.64
-0.039,0.999625,13.475,20.427,9.83,48.5
-0.003,0.978875,13.442,20.43,10.0,48.38
-0.091,0.94525,13.411,20.434,9.96,48.29
0.264,1.004875,13.381,20.44,9.79,48.22
-0.005,0.919375,13.353,20.446,9.67,48.11
0.091,0.8935,13.326,20.454,9.65,48.0
0.367,0.833875,13.301,20.46,9.76,47.9
0.144,0.8365,13.28,20.465,10.08,47.82
-0.049,0.903875,13.26,20.468,10.3,47.74
-0.043,0.98675,13.241,20.469,10.44,47.66
-0.039,1.028125,13.226,20.469,10.48,47.52
-0.047,1.01775,13.211,20.467,10.49,47.41
-0.05,0.9815,13.2,20.463,10.39,47.3
0.004,1.0255,13.19,20.456,10.4,47.19
-0.039,1.06175,13.18,20.446,10.41,47.12
0.095,1.041125,13.17,20.436,10.41,47.05
0.082,1.067,13.162,20.423,10.43,47.01
0.006,1.04625,13.154,20.408,10.4,46.94
0.152,1.007375,13.145,20.39,10.4,46.87
0.373,1.020375,13.137,20.372,10.72,46.81
-0.001,0.955625,13.128,20.352,10.68,46.79
-0.072,0.927125,13.118,20.332,10.57,46.78
-0.064,0.870125,13.108,20.312,10.52,46.77
-0.066,0.909,13.097,20.293,10.48,46.7
-0.075,0.9375,13.084,20.273,10.45,46.63
-0.059,0.968625,13.072,20.255,10.49,46.61
-0.013,0.97375,13.057,20.239,10.49,46.61
-0.109,0.963375,13.042,20.224,10.54,46.63
0.204,1.007375,13.027,20.213,10.68,46.66
-0.038,1.0515,13.012,20.205,10.68,46.69
0.04,1.043625,12.995,20.199,10.67,46.68
0.3,1.054,12.977,20.194,10.65,46.66
0.152,0.999625,12.959,20.192,10.62,46.65
-0.083,1.043625,12.942,20.191,10.6,46.66
-0.083,1.0515,12.925,20.188,10.61,46.69
-0.074,0.997125,12.908,20.188,10.59,46.65
-0.083,0.940125,12.893,20.188,10.6,46.63
-0.085,0.922,12.878,20.189,10.67,46.61
-0.022,0.9375,12.866,20.189,10.77,46.61
-0.113,1.0385,12.854,20.191,10.73,46.62
0.177,1.012625,12.844,20.191,10.82,46.68
-0.083,1.06175,12.836,20.191,11.13,46.74
-0.006,1.00225,12.828,20.188,11.71,46.82
0.216,1.020375,12.821,20.188,13.67,46.93
0.206,1.11875,12.816,20.186,18.14,47.1
-0.103,1.1265,12.81,20.183,24.86,47.27
-0.124,1.105875,12.804,20.179,32.89,47.38
-0.117,1.09025,12.799,20.174,41.49,47.46
-0.113,1.08775,12.795,20.169,57.08,47.59
-0.074,1.054,12.791,20.163,64.82,47.78
-0.169,1.077375,12.786,20.155,59.41,47.96
0.118,1.0515,12.784,20.148,47.58,48.1
-0.097,1.0515,12.779,20.138,38.04,48.3
0.209,1.06175,12.772,20.129,38.46,48.54
0.293,1.0385,12.766,20.121,39.68,48.75
0.073,1.144625,12.761,20.112,45.54,48.89
-0.147,1.11625,12.755,20.107,52.35,49.09
-0.147,1.064375,12.749,20.106,55.37,49.32
-0.135,1.064375,12.734,20.126,57.27,49.61
-0.078,1.144625,12.734,20.127,54.51,49.62
-0.178,1.18875,12.727,20.147,49.51,49.79
0.122,1.209375,12.72,20.179,42.11,49.98
-0.166,1.18875,12.713,20.215,31.64,50.15
-0.053,1.17575,12.705,20.259,28.13,50.21
0.17,1.178375,12.695,20.307,29.36,50.36
0.159,1.105875,12.688,20.358,35.6,50.6
-0.149,1.08,12.682,20.413,51.31,50.86
-0.159,1.033375,12.678,20.469,60.01,51.06
-0.135,1.023,12.677,20.529,60.43,51.15
-0.086,0.9945,12.679,20.589,56.11,51.22
-0.192,1.069625,12.684,20.658,49.87,51.31
0.105,1.144625,12.693,20.728,35.97,51.4
-0.127,1.111,12.707,20.807,24.45,51.54
-0.031,1.03075,12.72,20.887,18.67,51.63
0.241,1.01,12.74,20.969,16.07,51.8
0.073,1.10325,12.761,21.052,15.52,51.99
-0.159,1.064375,12.787,21.133,14.91,52.15
-0.164,1.072125,12.819,21.211,14.68,52.36
-0.117,0.9815,12.855,21.284,14.05,52.53
-0.121,1.023,12.893,21.354,13.58,52.65
-0.194,0.94525,12.94,21.419,13.54,52.86
0.12,0.95825,12.99,21.473,13.43,53.07
-0.111,0.940125,13.047,21.522,13.26,53.23
0.024,0.911625,13.109,21.563,13.11,53.41
0.303,0.85975,13.177,21.595,12.95,53.66
-0.064,0.906375,13.248,21.621,13.16,53.86
-0.174,0.9945,13.325,21.639,13.59,54.05
-0.163,1.01,13.402,21.648,13.61,54.24
-0.119,0.9815,13.48,21.647,13.42,54.45
-0.119,1.020375,13.557,21.642,13.28,54.68
-0.187,1.04625,13.631,21.632,13.34,54.93
0.138,1.10325,13.706,21.615,13.54,55.16
-0.105,1.098125,13.777,21.594,13.56,55.35
0.033,1.092875,13.843,21.567,13.54,55.57
0.318,1.085125,13.907,21.538,13.5,55.83
-0.057,1.08775,13.966,21.503,13.34,56.07
-0.172,1.033375,14.018,21.466,13.22,56.25
-0.16,1.035875,14.066,21.425,13.09,56.37
-0.144,0.9945,14.109,21.382,13.3,56.47
-0.089,0.92975,14.147,21.339,13.12,56.53
-0.167,0.968625,14.182,21.3,13.11,56.48
0.174,1.01775,14.211,21.263,13.09,56.41
-0.176,1.01525,14.233,21.232,13.06,56.27
-0.07,1.054,14.25,21.21,13.06,56.15
0.137,1.0515,14.264,21.2,13.09,56.05
0.268,1.033375,14.271,21.199,13.09,55.93
-0.124,1.043625,14.277,21.209,13.06,55.76
-0.154,1.100625,14.279,21.228,13.01,55.59
-0.137,1.098125,14.282,21.253,12.93,55.39
-0.132,1.11625,14.282,21.28,12.83,55.15
-0.128,1.0255,14.282,21.309,12.82,54.89
-0.065,1.041125,14.282,21.338,12.84,54.7
-0.156,1.03075,14.283,21.363,12.84,54.49
0.182,1.03075,14.285,21.384,12.99,54.23
-0.084,1.01525,14.29,21.402,12.98,53.99
0.005,0.934875,14.295,21.412,13.0,53.76
0.276,0.953,14.301,21.416,13.09,53.52
0.192,1.035875,14.308,21.412,13.0,53.3
-0.087,1.004875,14.317,21.405,13.08,53.03
-0.086,1.085125,14.328,21.392,13.04,52.7
-0.064,0.98675,14.338,21.376,12.9,52.36
-0.067,1.033375,14.346,21.359,12.84,52.05
-0.07,1.11875,14.355,21.339,12.92,51.8
-0.049,1.129125,14.363,21.319,12.94,51.54
-0.01,1.1265,14.37,21.303,12.99,51.29
-0.086,1.041125,14.375,21.297,13.04,51.01
0.275,1.06175,14.377,21.303,13.04,50.77
0.006,1.028125,14.382,21.33,13.01,50.6
0.106,0.978875,14.384,21.378,12.94,50.45
0.388,1.023,14.385,21.448,12.87,50.3
0.159,0.947875,14.386,21.536,12.83,50.14
-0.034,0.94525,14.389,21.639,12.86,49.97
-0.031,0.98925,14.39,21.743,12.83,49.75
-0.022,0.997125,14.394,21.845,12.82,49.52
-0.034,1.020375,14.403,21.939,12.78,49.31
-0.041,1.06175,14.414,22.025,12.71,49.15
-0.025,1.035875,14.434,22.099,12.67,49.0
0.02,1.077375,14.458,22.16,12.69,48.88
-0.07,1.08775,14.489,22.207,12.65,48.77
0.268,1.11625,14.528,22.237,12.59,48.67
0.009,1.08,14.571,22.251,12.56,48.57
0.097,1.041125,14.619,22.256,12.55,48.5
0.371,1.0255,14.67,22.251,12.53,48.43
0.212,1.03075,14.724,22.237,12.51,48.32
-0.025,1.041125,14.778,22.214,12.49,48.21
-0.022,0.955625,14.831,22.185,12.48,48.07
-0.014,0.883125,14.88,22.147,12.47,47.9
-0.024,0.898625,14.927,22.103,12.44,47.76
-0.032,0.934875,14.97,22.055,12.43,47.62
0.0,0.96075,15.006,22.003,12.4,47.5
0.001,0.999625,15.038,21.948,12.39,47.41
-0.065,0.942625,15.063,21.888,12.38,47.36
0.259,0.98675,15.083,21.82,12.36,47.31
0.008,0.971125,15.094,21.748,12.33,47.25
0.119,1.035875,15.103,21.673,12.34,47.19
0.396,1.056625,15.104,21.596,12.34,47.11
0.106,1.041125,15.102,21.516,12.34,47.04
-0.046,0.98925,15.097,21.433,12.33,47.02
-0.042,0.96075,15.086,21.35,12.32,47.0
-0.04,0.971125,15.071,21.266,12.29,46.96
-0.052,0.911625,15.052,21.182,12.27,46.92
-0.055,0.890875,15.031,21.099,12.27,46.89
0.008,0.90125,15.007,21.018,12.26,46.89
-0.081,0.953,14.98,20.939,12.25,46.91
0.222,0.95825,14.952,20.862,12.25,46.93
-0.056,0.94525,14.923,20.787,12.23,46.92
0.028,0.9245,14.89,20.717,12.22,46.91
0.247,0.968625,14.857,20.653,12.22,46.91
0.277,0.9815,14.821,20.588,12.22,46.92
-0.054,0.999625,14.784,20.525,12.2,46.94
-0.071,1.004875,14.744,20.462,12.2,46.95
-0.063,1.035875,14.703,20.404,12.17,46.92
-0.073,1.01525,14.661,20.348,12.16,46.86
-0.082,0.96075,14.616,20.296,12.16,46.82
-0.031,0.971125,14.571,20.245,12.16,46.82
-0.077,0.97375,14.525,20.197,12.15,46.85
0.149,0.903875,14.475,20.149,12.15,46.87
-0.041,0.883125,14.424,20.107,12.14,46.88
-0.014,0.9245,14.373,20.065,12.11,46.86
0.144,0.934875,14.321,20.024,12.09,46.83
0.345,0.955625,14.268,19.987,12.1,46.86
-0.026,0.976375,14.213,19.95,12.12,46.88
-0.078,0.911625,14.157,19.917,12.12,46.91
-0.068,0.9945,14.1,19.886,12.11,46.89
-0.069,1.054,14.044,19.859,12.12,46.85
-0.08,1.0255,13.987,19.835,12.11,46.81
-0.049,1.054,13.932,19.813,12.1,46.81
-0.045,0.9945,13.877,19.794,12.09,46.81
-0.092,0.997125,13.823,19.776,12.09,46.81
0.189,0.9815,13.768,19.762,12.07,46.86
-0.029,0.947875,13.717,19.748,11.93,46.87
0.088,0.963375,13.665,19.735,11.9,46.85
0.356,0.890875,13.617,19.724,11.93,46.86
0.055,0.84425,13.572,19.713,11.93,46.88
-0.078,0.91425,13.528,19.703,11.94,46.88
-0.07,0.9815,13.489,19.693,11.99,46.87
-0.069,1.00225,13.452,19.683,12.17,46.82
-0.079,0.98675,13.417,19.672,12.28,46.79
-0.057,0.95825,13.386,19.661,12.29,46.79
-0.05,1.028125,13.358,19.65,12.22,46.83
-0.109,0.997125,13.333,19.637,12.2,46.82
0.182,1.077375,13.308,19.622,12.09,46.83
-0.04,1.085125,13.286,19.607,11.94,46.82
0.073,0.978875,13.267,19.593,11.9,46.81
0.34,0.978875,13.247,19.577,11.81,46.83
0.043,0.976375,13.229,19.56,11.84,46.87
-0.096,0.963375,13.21,19.543,11.81,46.88
-0.092,0.976375,13.191,19.525,11.88,46.84
-0.089,0.932375,13.174,19.508,11.85,46.83
-0.102,1.01525,13.155,19.491,11.76,46.82
-0.058,0.9815,13.137,19.472,11.75,46.82
-0.108,1.004875,13.119,19.455,11.76,46.81
0.075,1.0385,13.101,19.437,11.75,46.8
-0.056,0.9375,13.081,19.418,11.67,46.81
-0.052,1.01775,13.061,19.4,11.64,46.83
0.102,1.023,13.042,19.383,11.62,46.81
0.303,0.9945,13.024,19.365,11.6,46.81
-0.06,1.08,13.002,19.348,11.6,46.83
-0.116,1.01,12.981,19.331,11.56,46.86
-0.113,0.978875,12.962,19.314,11.56,46.85
-0.115,0.978875,12.94,19.299,11.55,46.8
-0.122,0.98675,12.92,19.284,11.55,46.77
-0.067,0.947875,12.9,19.272,11.53,46.78
-0.158,0.90125,12.861,19.249,11.53,46.77
0.124,0.821,12.857,19.249,11.51,46.78
-0.109,0.911625,12.838,19.242,11.5,46.81
-0.028,0.9815,12.82,19.235,11.5,46.81
0.206,0.963375,12.8,19.23,11.49,46.8
0.182,0.906375,12.78,19.229,11.48,46.82
-0.111,0.942625,12.76,19.229,11.48,46.83
-0.119,0.9945,12.74,19.232,11.46,46.8
-0.109,0.953,12.723,19.241,11.45,46.75
-0.12,1.0255,12.704,19.256,11.45,46.79
-0.075,0.997125,12.686,19.279,11.45,46.86
-0.131,0.966,12.668,19.307,11.44,46.93
0.095,0.953,12.652,19.343,11.43,46.97
-0.124,0.932375,12.634,19.384,11.43,47.05
-0.068,0.922,12.622,19.429,11.43,47.16
0.097,0.934875,12.611,19.476,11.43,47.33
0.281,0.875375,12.605,19.524,11.42,47.51
-0.088,0.870125,12.602,19.57,11.4,47.71
-0.14,0.9375,12.605,19.615,11.4,47.89
-0.13,0.9505,12.613,19.656,11.4,48.05
-0.115,0.978875,12.628,19.691,11.39,48.16
-0.097,0.932375,12.649,19.72,11.39,48.32
-0.195,0.94525,12.678,19.744,11.38,48.69
0.096,0.953,12.711,19.762,11.38,49.01
-0.108,0.98675,12.748,19.774,11.38,49.19
-0.006,1.01525,12.791,19.779,11.37,49.31
0.262,0.940125,12.837,19.78,11.37,49.41
0.006,0.97375,12.884,19.779,11.35,49.56
-0.162,0.8935,12.931,19.775,11.35,49.75
-0.158,0.909,12.978,19.765,11.35,49.95
-0.145,0.90125,13.024,19.755,11.35,50.06
-0.118,0.898625,13.066,19.742,11.34,50.19
-0.219,0.877875,13.106,19.728,11.34,50.38
0.071,0.911625,13.144,19.713,11.34,50.61
-0.137,0.92975,13.175,19.693,11.33,50.8
-0.041,0.932375,13.201,19.674,11.33,50.98
0.226,0.95825,13.225,19.654,11.33,51.17
0.024,0.94525,13.243,19.63,11.32,51.31
-0.182,0.984125,13.256,19.605,11.32,51.44
-0.179,0.92975,13.267,19.58,11.31,51.55
-0.144,1.043625,13.274,19.555,11.31,51.58
-0.126,1.020375,13.28,19.528,11.31,51.59
-0.228,0.97375,13.282,19.503,11.31,51.66
0.084,0.947875,13.282,19.476,11.29,51.81
-0.133,0.934875,13.28,19.448,11.29,51.91
-0.023,0.98925,13.276,19.424,11.29,51.96
0.258,0.88825,13.268,19.397,11.28,52.05
-0.024,0.87275,13.259,19.371,11.28,52.15
-0.185,0.852,13.249,19.348,11.28,52.23
-0.181,0.91425,13.24,19.324,11.28,52.36
-0.141,0.932375,13.229,19.303,11.28,52.43
-0.13,0.92975,13.214,19.283,11.28,52.47
-0.22,0.932375,13.198,19.266,11.27,52.55
-0.02,0.978875,13.18,19.249,11.27,52.64
-0.097,0.96075,13.164,19.236,11.27,52.68
0.005,1.0255,13.146,19.225,11.26,52.65
0.292,1.07475,13.124,19.213,11.26,52.58
-0.001,0.984125,13.103,19.206,11.26,52.47
-0.141,1.004875,13.061,19.191,11.26,52.26
-0.13,0.953,13.06,19.19,11.24,52.25
-0.11,0.942625,13.036,19.181,11.24,52.06
-0.057,0.934875,13.015,19.173,11.24,51.85
-0.111,0.896125,12.992,19.166,11.24,51.63
0.086,0.91425,12.969,19.157,11.23,51.39
-0.022,0.852,12.945,19.146,11.23,51.11
-0.029,0.8935,12.924,19.136,11.23,50.81
0.144,0.932375,12.9,19.126,11.23,50.52
0.351,0.865,12.88,19.115,11.23,50.26
-0.036,0.953,12.856,19.103,11.22,50.08
-0.088,0.906375,12.833,19.09,11.22,49.91
-0.076,0.940125,12.812,19.078,11.22,49.69
-0.073,0.98925,12.79,19.065,11.22,49.42
-0.08,0.978875,12.768,19.052,11.22,49.21
-0.015,0.978875,12.748,19.039,11.21,49.1
-0.105,0.909,12.725,19.026,11.21,48.99
0.244,0.87275,12.706,19.013,11.21,48.85
-0.11,0.932375,12.686,18.999,11.21,48.7
-0.005,0.883125,12.663,18.986,11.2,48.54
0.211,0.854625,12.643,18.971,11.2,48.39
0.311,0.8235,12.623,18.959,11.2,48.26
-0.054,0.875375,12.604,18.944,11.2,48.15
-0.076,0.9375,12.584,18.93,11.18,48.04
-0.065,0.92975,12.566,18.917,11.18,47.88
-0.066,0.9505,12.546,18.907,11.18,47.69
-0.074,0.92975,12.527,18.904,11.18,47.51
-0.043,1.007375,12.509,18.907,11.18,47.4
-0.032,0.976375,12.493,18.92,11.18,47.33
-0.111,1.01,12.46,18.987,11.18,47.24
0.236,0.9815,12.456,18.993,11.17,47.23
-0.025,0.968625,12.442,19.053,11.17,47.17
0.077,0.9505,12.426,19.134,11.17,47.12
0.369,0.9505,12.411,19.231,11.17,47.09
0.12,0.966,12.397,19.349,11.17,47.05
-0.066,0.88575,12.387,19.475,11.17,47.03
-0.061,0.8365,12.381,19.614,11.17,47.01
-0.052,0.883125,12.381,19.757,11.17,46.93
-0.06,0.877875,12.389,19.903,11.16,46.87
-0.065,0.909,12.406,20.042,11.16,46.83
0.0,0.942625,12.433,20.173,11.16,46.82
-0.067,0.911625,12.474,20.297,11.16,46.81
0.209,0.927125,12.526,20.412,11.16,46.83
-0.042,0.978875,12.595,20.51,11.15,46.83
0.019,1.043625,12.675,20.596,11.15,46.81
0.194,1.03075,12.768,20.669,11.15,46.81
0.384,0.934875,12.872,20.727,11.15,46.83
0.001,0.94525,12.982,20.775,11.15,46.85
-0.045,0.922,13.097,20.809,11.15,46.83
-0.04,0.968625,13.211,20.834,11.15,46.81
-0.046,0.898625,13.329,20.849,11.13,46.77
-0.061,0.870125,13.443,20.854,11.13,46.76
-0.05,0.833875,13.544,20.851,11.13,46.77
-0.018,0.8935,13.635,20.84,11.13,46.79
-0.106,0.8935,13.713,20.822,11.13,46.78
0.194,0.927125,13.786,20.798,11.13,46.78
-0.038,0.903875,13.851,20.768,11.13,46.78
0.038,0.88825,13.91,20.731,11.12,46.79
0.301,0.927125,13.96,20.689,11.12,46.81
0.184,1.01525,14.003,20.64,11.12,46.81
-0.081,1.035875,14.041,20.587,11.12,46.8
-0.084,0.997125,14.075,20.532,11.12,46.8
-0.074,0.966,14.101,20.474,11.12,46.8
-0.081,0.927125,14.125,20.415,11.12,46.75
-0.09,0.940125,14.143,20.356,11.12,46.74
-0.043,0.991875,14.157,20.295,11.12,46.77
-0.074,0.865,14.164,20.233,11.11,46.8
-0.024,0.906375,14.17,20.169,11.11,46.81
0.113,0.877875,14.17,20.109,11.11,46.81
-0.025,0.9245,14.168,20.049,11.11,46.81
0.114,0.94525,14.163,19.989,11.11,46.82
0.374,0.911625,14.154,19.931,11.1,46.82
0.023,1.028125,14.142,19.876,11.1,46.82
-0.069,0.963375,14.128,19.824,11.1,46.81
-0.059,0.966,14.111,19.773,11.1,46.8
-0.053,1.023,14.091,19.724,11.1,46.8
-0.063,1.004875,14.069,19.677,11.1,46.75
-0.055,0.98675,14.044,19.635,11.1,46.75
-0.016,0.91675,14.015,19.594,11.1,46.75
-0.103,0.934875,13.985,19.554,11.1,46.75
0.192,0.978875,13.952,19.518,11.1,46.78
-0.032,0.883125,13.916,19.483,11.09,46.78
0.044,0.867625,13.879,19.451,11.09,46.77
0.299,0.854625,13.839,19.42,11.09,46.77
0.206,0.940125,13.798,19.39,11.09,46.8
-0.063,0.9375,13.756,19.364,11.09,46.81
-0.068,0.91425,13.711,19.335,11.09,46.82
-0.06,0.890875,13.666,19.31,11.07,46.79
-0.069,0.898625,13.621,19.284,11.07,46.76
-0.067,0.934875,13.579,19.261,11.07,46.74
-0.024,0.978875,13.534,19.239,11.07,46.76
-0.115,1.012625,13.491,19.216,11.07,46.76
0.171,1.023,13.449,19.195,11.07,46.79
-0.055,0.971125,13.405,19.172,11.07,46.81
0.016,0.922,13.364,19.151,11.07,46.79
0.265,0.9375,13.324,19.13,11.07,46.78
0.208,0.90125,13.286,19.109,11.07,46.8
-0.08,0.862375,13.248,19.089,11.07,46.81
-0.089,0.833875,13.211,19.069,11.07,46.82
-0.08,0.833875,13.174,19.05,11.07,46.8
-0.089,0.90125,13.139,19.03,11.07,46.76
-0.091,0.92975,13.107,19.01,11.06,46.75
-0.043,0.90125,13.073,18.991,11.06,46.74
-0.136,0.927125,13.041,18.973,11.06,46.73
0.144,0.8935,13.008,18.954,11.06,46.76
-0.084,0.875375,12.979,18.936,11.06,46.78
-0.01,1.020375,12.946,18.919,11.05,46.77
0.232,1.023,12.916,18.903,11.05,46.77
0.185,0.997125,12.887,18.887,11.05,46.79
-0.106,0.97375,12.857,18.869,11.05,46.8
-0.111,0.896125,12.829,18.854,11.05,46.8
-0.099,0.955625,12.801,18.839,11.05,46.76
-0.106,0.9505,12.774,18.822,11.05,46.74
-0.114,0.875375,12.746,18.809,11.05,46.73
-0.053,0.867625,12.721,18.796,11.05,46.73
-0.143,0.919375,12.697,18.782,11.05,46.72
0.149,0.92975,12.672,18.771,11.05,46.74
-0.12,0.922,12.647,18.761,11.05,46.76
-0.03,0.932375,12.622,18.751,11.05,46.78
0.185,0.947875,12.599,18.743,11.05,46.79
0.232,0.911625,12.575,18.736,11.04,46.8
-0.101,0.927125,12.552,18.73,11.04,46.82
-0.117,1.007375,12.53,18.722,11.04,46.83
-0.108,0.947875,12.509,18.717,11.04,46.83
-0.115,0.947875,12.487,18.713,11.04,46.87
-0.107,0.932375,12.467,18.709,11.04,46.95
-0.077,0.942625,12.447,18.705,11.04,47.02
-0.165,0.971125,12.427,18.702,11.02,47.12
0.123,0.91425,12.41,18.698,11.02,47.24
-0.093,0.821,12.391,18.693,11.02,47.37
-0.008,0.877875,12.372,18.689,11.02,47.51
0.252,0.898625,12.355,18.685,11.02,47.65
0.094,0.947875,12.338,18.68,11.02,47.86
-0.139,0.85975,12.321,18.674,11.02,48.08
-0.145,0.95825,12.306,18.668,11.02,48.26
-0.139,0.85975,12.291,18.661,11.02,48.4
-0.127,0.97375,12.276,18.655,11.02,48.54
-0.124,0.991875,12.263,18.649,11.02,48.66
-0.204,1.048875,12.25,18.641,11.02,48.8
0.091,0.978875,12.237,18.634,11.02,48.95
-0.116,0.9505,12.224,18.627,11.02,49.1
-0.012,0.909,12.213,18.619,11.02,49.23
0.263,0.976375,12.202,18.609,11.02,49.34
0.0,0.91425,12.189,18.602,11.02,49.5
-0.161,0.906375,12.178,18.592,11.02,49.66
-0.157,0.85725,12.167,18.582,11.02,49.82
-0.149,0.906375,12.156,18.572,11.02,49.92
-0.106,0.927125,12.146,18.562,11.02,50.01
-0.176,0.9245,12.136,18.554,11.01,50.16
0.1,0.9505,12.126,18.544,11.02,50.33
-0.171,0.96075,12.113,18.535,11.01,50.46
-0.08,0.94525,12.103,18.525,11.01,50.59
0.094,1.0255,12.094,18.515,11.01,50.74
0.265,1.048875,12.084,18.506,11.01,50.88
-0.11,1.012625,12.074,18.499,11.01,51.05
-0.156,1.01775,12.064,18.495,11.01,51.2
-0.143,0.942625,12.053,18.493,11.01,51.32
-0.107,0.97375,12.043,18.491,11.01,51.41
-0.128,0.963375,12.034,18.494,11.0,51.5
-0.176,0.877875,12.024,18.501,11.0,51.61
0.101,0.87275,12.015,18.51,11.0,51.72
-0.105,0.865,12.008,18.52,11.0,51.83
0.022,0.911625,12.005,18.531,11.0,51.97
0.293,0.903875,12.005,18.543,11.0,52.13
-0.045,0.90125,12.008,18.556,11.0,52.29
-0.167,0.909,12.014,18.568,11.0,52.49
-0.159,0.90125,12.025,18.579,11.0,52.73
-0.138,0.927125,12.043,18.589,11.0,52.96
-0.111,0.978875,12.065,18.599,11.0,53.11
-0.209,1.06175,12.091,18.607,11.0,53.29
0.112,0.971125,12.122,18.613,11.0,53.49
-0.128,0.94525,12.157,18.618,11.0,53.71
-0.027,0.909,12.196,18.621,11.0,54.24
0.266,0.966,12.236,18.622,11.0,54.69
0.023,0.8935,12.275,18.622,11.0,54.9
-0.178,0.91425,12.318,18.62,11.0,55.08
-0.177,0.906375,12.357,18.616,11.0,55.28
-0.163,0.88825,12.397,18.611,11.0,55.39
-0.103,0.8935,12.436,18.606,11.0,55.44
-0.194,0.8805,12.47,18.601,11.0,55.55
0.164,0.942625,12.505,18.593,11.0,55.71
-0.219,0.94525,12.535,18.588,11.0,55.83
-0.084,0.896125,12.56,18.582,10.99,55.91
0.127,0.966,12.584,18.576,10.99,56.03
0.257,1.020375,12.602,18.569,10.99,56.12
-0.141,0.98675,12.617,18.563,10.99,56.12
-0.174,0.91425,12.632,18.561,10.99,56.06
-0.16,0.909,12.643,18.557,10.99,55.96
-0.155,0.90125,12.65,18.557,10.99,55.84
-0.095,0.971125,12.657,18.561,10.98,55.76
-0.172,0.865,12.662,18.571,10.99,55.69
0.171,0.896125,12.666,18.587,10.99,55.62
-0.188,0.8495,12.669,18.611,10.98,55.45
0.11,0.91675,12.671,18.64,10.98,55.29
0.226,0.911625,12.673,18.679,10.98,55.07
0.299,0.934875,12.674,18.726,10.98,54.89
-0.099,0.9505,12.677,18.777,10.98,54.71
-0.133,0.94525,12.682,18.831,10.98,54.51
-0.117,0.971125,12.695,18.936,10.98,54.06
-0.111,0.978875,12.695,18.942,10.98,54.02
-0.113,1.04625,12.707,18.994,10.98,53.81
-0.049,0.999625,12.721,19.043,10.98,53.61
-0.144,0.966,12.738,19.087,10.98,53.36
0.197,0.934875,12.761,19.125,10.98,53.11
-0.104,0.934875,12.784,19.156,10.98,52.86
-0.004,0.8935,12.812,19.179,10.98,52.63
0.242,0.903875,12.842,19.197,10.98,52.4
0.27,0.875375,12.873,19.211,10.98,52.15
-0.072,0.90125,12.905,19.217,10.98,51.89
-0.085,0.922,12.938,19.22,10.98,51.6
-0.069,0.88575,12.969,19.217,10.98,51.3
-0.069,0.953,12.998,19.212,10.98,51.0
-0.075,0.947875,13.027,19.206,10.98,50.74
-0.024,0.896125,13.05,19.195,10.98,50.55
-0.062,0.947875,13.071,19.18,10.98,50.38
0.013,1.007375,13.089,19.164,10.98,50.21
0.144,0.98925,13.103,19.147,10.98,50.04
0.002,0.97375,13.115,19.127,10.98,49.88
0.149,0.906375,13.123,19.107,10.98,49.73
0.416,0.898625,13.128,19.087,10.98,49.61
0.051,0.91675,13.131,19.068,10.98,49.49
-0.04,0.919375,13.131,19.051,10.98,49.37
-0.032,0.852,13.127,19.036,10.98,49.23
-0.027,0.867625,13.122,19.024,10.98,49.1
-0.037,0.883125,13.117,19.016,10.98,48.97
0.004,0.92975,13.109,19.012,10.98,48.88
0.019,0.955625,13.1,19.01,10.98,48.78
-0.042,0.955625,13.093,19.011,10.96,48.68
0.163,0.9245,13.085,19.011,10.96,48.61
0.056,0.947875,13.078,19.013,10.96,48.52
0.029,0.95825,13.062,19.013,10.96,48.36
0.189,1.01,13.061,19.012,10.96,48.36
0.429,1.03075,13.055,19.011,10.96,48.29
0.047,1.01,13.047,19.006,10.96,48.22
-0.026,0.963375,13.042,18.998,10.96,48.12
-0.014,0.947875,13.035,18.992,10.96,48.03
-0.013,0.87275,13.03,18.982,10.96,47.9
-0.026,0.890875,13.023,18.97,10.96,47.79
-0.031,0.870125,13.017,18.957,10.96,47.69
0.021,0.85975,13.011,18.944,10.96,47.62
-0.013,0.922,13.002,18.929,10.96,47.54
0.05,0.911625,12.993,18.914,10.96,47.46
0.183,0.91425,12.982,18.896,10.96,47.35
0.031,0.9505,12.971,18.879,10.96,47.26
0.17,0.88575,12.958,18.861,10.96,47.21
0.444,0.984125,12.943,18.841,10.96,47.17
0.084,0.999625,12.927,18.821,10.96,47.12
-0.023,1.01775,12.908,18.801,10.96,47.07
-0.018,0.96075,12.889,18.78,10.95,47.01
-0.018,0.922,12.87,18.757,10.95,46.93
-0.033,0.919375,12.848,18.735,10.95,46.86
-0.039,0.890875,12.826,18.713,10.95,46.82
0.023,0.909,12.805,18.688,10.95,46.82
-0.064,0.896125,12.783,18.665,10.95,46.85
0.258,0.8805,12.759,18.642,10.95,46.93
-0.059,0.85975,12.736,18.618,10.95,46.9
0.036,0.911625,12.712,18.596,10.95,46.85
0.241,0.903875,12.687,18.573,10.95,46.83
0.352,0.978875,12.662,18.551,10.95,46.87
-0.018,0.896125,12.639,18.53,10.95,46.86
-0.047,0.934875,12.615,18.509,10.95,46.86
-0.04,0.999625,12.59,18.488,10.95,46.83
-0.045,1.01525,12.565,18.468,10.95,46.79
-0.055,0.96075,12.541,18.448,10.95,46.75
-0.012,0.955625,12.518,18.428,10.95,46.79
-0.056,0.8935,12.493,18.411,10.95,46.86
0.037,0.911625,12.47,18.393,10.95,46.95
0.077,0.942625,12.447,18.374,10.95,47.04
-0.018,0.91675,12.423,18.359,10.95,47.11
0.124,0.903875,12.401,18.346,10.95,47.22
0.381,0.877875,12.377,18.333,10.95,47.39
0.009,0.909,12.355,18.325,10.95,47.58
-0.089,0.9375,12.333,18.321,10.94,47.74
-0.086,0.922,12.31,18.323,10.95,47.9
-0.085,0.966,12.288,18.333,10.94,48.06
-0.05,0.934875,12.266,18.352,10.94,48.2
-0.102,0.984125,12.244,18.378,10.94,48.41
0.07,0.976375,12.223,18.412,10.94,48.6
-0.054,1.012625,12.203,18.45,10.94,48.82
-0.052,0.978875,12.183,18.493,10.94,49.02
0.101,0.942625,12.166,18.536,10.94,49.19
0.314,0.9375,12.15,18.58,10.94,49.33
-0.074,0.955625,12.136,18.619,10.94,49.5
-0.14,0.934875,12.126,18.658,10.94,49.67
-0.14,0.846875,12.117,18.691,10.94,49.79
-0.123,0.909,12.115,18.721,10.94,49.89
-0.107,0.90125,12.115,18.746,10.94,50.03
-0.205,0.911625,12.118,18.764,10.94,50.21
0.108,0.906375,12.126,18.777,10.94,50.41
-0.028,0.906375,12.136,18.785,10.93,50.62
0.034,0.877875,12.15,18.789,10.93,50.84
0.267,0.88825,12.162,18.789,10.93,51.04
0.016,1.023,12.18,18.783,10.93,51.23
-0.168,1.01525,12.194,18.777,10.94,51.42
-0.161,1.004875,12.225,18.752,10.94,51.72
-0.13,0.971125,12.228,18.752,10.93,51.74
-0.101,0.91675,12.24,18.738,10.93,51.82
-0.199,0.909,12.253,18.722,10.93,51.96
0.121,0.91425,12.265,18.707,10.93,51.92
-0.108,0.91675,12.273,18.688,10.93,51.73
-0.004,0.870125,12.279,18.669,10.93,51.46
0.288,0.85725,12.284,18.649,10.93,51.19
0.062,0.898625,12.286,18.629,10.93,50.92
-0.129,0.867625,12.288,18.61,10.93,50.69
-0.124,0.883125,12.286,18.587,10.93,50.46
-0.11,0.934875,12.285,18.567,10.93,50.17
-0.058,0.919375,12.281,18.547,10.93,49.91
-0.102,0.932375,12.276,18.528,10.93,49.66
-0.006,0.976375,12.272,18.508,10.93,49.49
0.054,1.007375,12.267,18.491,10.93,49.52
-0.041,1.00225,12.26,18.476,10.93,49.44
0.117,0.909,12.253,18.464,10.93,49.26
0.368,0.909,12.245,18.454,10.93,49.05
-0.008,0.953,12.238,18.449,10.93,48.9
-0.077,0.919375,12.232,18.449,10.93,48.75
-0.065,0.91675,12.224,18.456,10.93,48.6
-0.06,0.87275,12.217,18.474,10.93,48.39
-0.055,0.84425,12.212,18.501,10.93,48.19
-0.004,0.896125,12.207,18.542,10.93,48.0
-0.105,0.909,12.204,18.593,10.93,47.85
0.204,0.978875,12.203,18.652,10.93,47.75
-0.039,0.922,12.203,18.716,10.93,47.65
0.038,0.932375,12.207,18.783,10.93,47.53
0.302,0.991875,12.215,18.853,10.93,47.42
0.239,1.00225,12.227,18.919,10.93,47.3
-0.051,1.0515,12.246,18.982,10.93,47.23
-0.056,0.96075,12.268,19.037,10.93,47.17
-0.049,0.963375,12.297,19.088,10.93,47.04
-0.052,0.947875,12.333,19.127,10.93,46.9
-0.062,0.909,12.372,19.159,10.93,46.82
-0.001,0.922,12.416,19.184,10.93,46.77
-0.065,0.90125,12.463,19.198,10.93,46.74
0.191,0.896125,12.511,19.205,10.93,46.72
-0.055,0.92975,12.561,19.207,10.93,46.67
-0.004,0.87275,12.611,19.203,10.93,46.57
0.166,0.919375,12.657,19.193,10.93,46.4
0.368,0.963375,12.704,19.18,10.93,46.32
-0.015,0.88825,12.744,19.164,10.93,46.31
-0.066,0.95825,12.781,19.143,10.93,46.3
-0.062,0.991875,12.814,19.12,10.93,46.33
-0.061,1.048875,12.842,19.098,10.93,46.31
-0.066,0.997125,12.866,19.071,10.93,46.29
-0.053,0.9245,12.887,19.039,10.93,46.27
-0.003,0.8805,12.903,19.008,10.93,46.28
-0.095,0.85725,12.914,18.973,10.93,46.32
0.199,0.903875,12.924,18.938,10.93,46.38
-0.03,0.966,12.929,18.9,10.93,46.39
0.047,0.88825,12.932,18.863,10.93,46.4
0.31,0.826125,12.93,18.823,10.93,46.39
0.224,0.898625,12.927,18.784,10.93,46.38
-0.052,0.922,12.92,18.744,10.93,46.38
-0.056,0.911625,12.911,18.705,10.93,46.39
-0.051,0.9245,12.901,18.667,10.91,46.37
-0.057,0.9375,12.89,18.628,10.93,46.34
-0.066,0.940125,12.876,18.593,10.93,46.31
-0.028,0.999625,12.861,18.556,10.93,46.3
-0.041,0.997125,12.842,18.522,10.93,46.32
-0.061,0.96075,12.825,18.489,10.93,46.33
0.177,0.984125,12.805,18.457,10.93,46.37
-0.021,0.953,12.783,18.425,10.93,46.49
0.099,0.8935,12.761,18.398,10.93,46.61
0.379,0.922,12.736,18.372,10.93,46.74
0.055,0.88575,12.714,18.347,10.91,46.87
-0.078,0.84425,12.687,18.325,10.93,47.01
-0.076,0.88825,12.66,18.304,10.91,47.14
-0.076,0.922,12.633,18.285,10.91,47.27
-0.09,0.95825,12.606,18.269,10.91,47.41
-0.059,0.8935,12.576,18.253,10.93,47.57
-0.081,0.903875,12.548,18.235,10.91,47.75
-0.061,0.9815,12.519,18.22,10.91,47.98
0.092,0.978875,12.49,18.205,10.91,48.17
-0.053,1.020375,12.461,18.193,10.91,48.36
0.075,0.971125,12.432,18.178,10.91,48.53
0.332,0.955625,12.403,18.166,10.91,48.74
-0.06,0.883125,12.374,18.154,10.91,48.96
-0.121,0.852,12.346,18.142,10.91,49.18
-0.112,0.927125,12.317,18.132,10.91,49.36
-0.117,0.95825,12.287,18.124,10.91,49.48
-0.09,0.90125,12.262,18.114,10.91,49.6
-0.117,0.8365,12.209,18.099,10.91,49.94
-0.123,0.88825,12.208,18.101,10.9,49.96
0.082,0.883125,12.182,18.092,10.91,50.16
-0.087,0.966,12.157,18.085,10.91,50.35
0.042,0.909,12.132,18.076,10.91,50.52
0.303,0.963375,12.109,18.067,10.91,50.7
-0.044,0.997125,12.087,18.059,10.9,50.91
-0.155,0.971125,12.064,18.05,10.91,51.07
-0.148,1.007375,12.042,18.04,10.91,51.25
-0.138,0.94525,12.019,18.031,10.9,51.34
-0.088,0.953,12.0,18.02,10.9,51.45
-0.189,0.922,11.978,18.01,10.9,51.59
0.112,0.97375,11.96,18.0,10.9,51.72
-0.145,0.953,11.94,17.99,10.9,51.83
-0.047,0.92975,11.92,17.98,10.9,51.94
0.199,0.867625,11.903,17.97,10.9,52.07
0.164,0.883125,11.884,17.958,10.9,52.12
-0.139,0.903875,11.866,17.948,10.9,52.2
-0.146,0.898625,11.849,17.937,10.9,52.28
-0.132,0.94525,11.833,17.924,10.9,52.27
-0.073,0.903875,11.816,17.915,10.9,52.16
-0.144,0.95825,11.8,17.906,10.9,52.03
0.106,1.01,11.784,17.896,10.9,51.88
-0.111,1.04625,11.769,17.886,10.9,51.7
-0.062,1.007375,11.754,17.877,10.9,51.47
0.115,0.98925,11.74,17.871,10.9,51.24
0.312,0.919375,11.725,17.867,10.9,50.99
-0.074,0.919375,11.711,17.862,10.9,50.74
-0.119,0.94525,11.697,17.861,10.9,50.51
-0.105,0.940125,11.683,17.864,10.9,50.26
-0.104,0.846875,11.67,17.868,10.9,49.96
-0.04,0.88825,11.658,17.877,10.9,49.66
-0.12,0.896125,11.649,17.89,10.9,49.46
0.205,0.906375,11.639,17.906,10.9,49.32
-0.128,0.940125,11.629,17.928,10.9,49.17
-0.022,0.91675,11.623,17.953,10.9,49.05
0.172,0.934875,11.618,17.98,10.9,48.91
0.328,0.942625,11.615,18.011,10.9,48.79
-0.052,1.033375,11.615,18.044,10.9,48.7
-0.082,1.007375,11.618,18.076,10.9,48.61
-0.069,0.9505,11.624,18.111,10.9,48.48
-0.067,0.9945,11.636,18.142,10.9,48.33
-0.066,0.953,11.651,18.172,10.9,48.2
-0.002,0.911625,11.672,18.198,10.9,48.13
-0.099,0.971125,11.698,18.222,10.9,48.05
0.213,0.87275,11.728,18.239,10.9,47.92
-0.046,0.890875,11.762,18.256,10.9,47.8
0.032,0.898625,11.798,18.266,10.9,47.67
0.277,0.91425,11.838,18.275,10.9,47.57
0.271,0.909,11.879,18.279,10.9,47.5
-0.048,0.927125,11.921,18.279,10.9,47.43
-0.058,0.90125,11.965,18.277,10.9,47.34
-0.049,0.91425,12.004,18.273,10.9,47.22
-0.056,0.968625,12.044,18.268,10.9,47.1
-0.059,1.01775,12.08,18.26,10.9,47.02
0.008,0.934875,12.115,18.251,10.9,47.02
-0.09,0.934875,12.146,18.24,10.9,46.96
0.206,0.966,12.175,18.228,10.9,46.89
-0.052,0.898625,12.198,18.215,10.9,46.83
0.029,0.978875,12.218,18.2,10.9,46.79
0.26,0.96075,12.234,18.185,10.9,46.73
0.071,0.883125,12.249,18.171,10.9,46.7
-0.052,0.867625,12.262,18.156,10.9,46.69
-0.055,0.911625,12.269,18.138,10.9,46.67
-0.049,0.932375,12.274,18.122,10.9,46.64
-0.054,0.932375,12.276,18.107,10.9,46.58
-0.063,0.896125,12.276,18.075,10.9,46.49
0.004,0.96075,12.275,18.074,10.9,46.48
-0.081,1.020375,12.274,18.059,10.9,46.47
0.225,0.98675,12.269,18.044,10.9,46.47
-0.093,1.05925,12.262,18.029,10.9,46.48
0.009,0.97375,12.253,18.011,10.9,46.48
0.209,0.947875,12.243,17.997,10.9,46.47
0.328,0.91675,12.233,17.984,10.9,46.5
-0.038,0.91425,12.222,17.969,10.9,46.56
-0.067,0.9505,12.21,17.954,10.9,46.6
-0.06,0.919375,12.197,17.939,10.9,46.59
-0.064,0.906375,12.182,17.927,10.9,46.55
-0.075,0.87275,12.167,17.912,10.9,46.53
-0.034,0.898625,12.152,17.898,10.9,46.54
-0.057,0.922,12.136,17.885,10.9,46.57
-0.041,0.90125,12.119,17.871,10.9,46.56
0.127,0.942625,12.101,17.857,10.9,46.59
-0.026,0.971125,12.083,17.843,10.9,46.58
0.102,0.98675,12.062,17.83,10.9,46.58
0.372,1.028125,12.044,17.816,10.9,46.62
0.03,1.0385,12.023,17.804,10.9,46.7
-0.084,0.919375,12.002,17.79,10.9,46.78
-0.08,0.953,11.981,17.779,10.9,46.83
-0.079,0.909,11.96,17.768,10.9,46.88
-0.093,0.91675,11.94,17.756,10.9,46.92
-0.06,0.963375,11.919,17.746,10.9,47.03
-0.082,0.852,11.898,17.738,10.9,47.17
-0.066,0.85975,11.878,17.732,10.9,47.33
0.087,0.877875,11.858,17.726,10.9,47.5
-0.059,0.877875,11.84,17.722,10.9,47.66
0.065,0.8935,11.822,17.718,10.9,47.81
0.328,0.8935,11.804,17.716,10.9,47.97
-0.007,0.91675,11.788,17.713,10.9,48.16
-0.121,0.978875,11.772,17.712,10.9,48.34
-0.118,0.999625,11.757,17.711,10.9,48.5
-0.116,1.007375,11.742,17.708,10.89,48.61
-0.107,0.976375,11.727,17.707,10.89,48.72
-0.088,0.978875,11.715,17.706,10.89,48.85
-0.176,0.932375,11.703,17.702,10.89,49.0
0.125,0.903875,11.693,17.698,10.89,49.17
-0.092,0.942625,11.681,17.695,10.89,49.34
0.006,0.92975,11.673,17.691,10.89,49.5
0.284,0.922,11.665,17.684,10.89,49.64
0.056,0.875375,11.656,17.678,10.89,49.78
-0.134,0.865,11.65,17.671,10.89,49.93
-0.131,0.978875,11.643,17.664,10.89,50.08
-0.128,0.97375,11.636,17.657,10.89,50.17
-0.091,0.9245,11.629,17.65,10.89,50.24
-0.124,0.98925,11.623,17.642,10.89,50.33
-0.101,0.98925,11.615,17.635,10.89,50.42
0.065,1.01525,11.609,17.627,10.89,50.48
-0.083,0.9815,11.6,17.617,10.89,50.54
0.05,0.98675,11.594,17.609,10.89,50.61
0.312,0.98675,11.585,17.6,10.89,50.67
-0.043,0.927125,11.576,17.59,10.89,50.77
-0.144,0.9375,11.569,17.582,10.89,50.88
-0.133,0.906375,11.559,17.572,10.89,50.99
-0.118,0.903875,11.551,17.564,10.89,51.03
-0.078,0.906375,11.542,17.555,10.89,51.05
-0.171,0.846875,11.532,17.548,10.89,51.12
0.13,0.927125,11.522,17.54,10.89,51.21
-0.107,0.927125,11.512,17.534,10.89,51.24
-0.015,0.91675,11.502,17.529,10.89,51.29
0.24,0.903875,11.494,17.528,10.89,51.33
0.169,0.94525,11.482,17.528,10.89,51.3
-0.114,0.963375,11.472,17.529,10.89,51.26
-0.118,0.9815,11.462,17.533,10.89,51.2
-0.103,0.932375,11.454,17.539,10.89,51.04
-0.069,0.919375,11.445,17.548,10.89,50.86
-0.083,0.940125,11.436,17.558,10.89,50.72
-0.132,0.922,11.429,17.568,10.89,50.56
0.172,0.94525,11.424,17.577,10.89,50.38
-0.05,0.922,11.419,17.591,10.89,50.18
0.078,0.862375,11.416,17.604,10.89,49.99
0.368,0.841625,11.415,17.617,10.89,49.79
0.049,0.85725,11.415,17.631,10.89,49.6
-0.082,0.903875,11.419,17.646,10.89,49.45
-0.075,0.909,11.424,17.661,10.89,49.31
-0.063,0.898625,11.43,17.674,10.89,49.11
-0.058,0.9505,11.437,17.688,10.89,48.92
-0.003,0.98675,11.449,17.701,10.89,48.77
-0.1,1.012625,11.461,17.712,10.89,48.64
0.213,1.035875,11.475,17.722,10.89,48.5
-0.032,0.9505,11.488,17.728,10.89,48.39
0.047,1.01525,11.503,17.736,10.89,48.28
0.31,0.909,11.518,17.738,10.89,48.16
0.262,0.968625,11.535,17.74,10.89,48.05
-0.04,0.91425,11.551,17.74,10.89,47.94
-0.046,0.91675,11.567,17.736,10.89,47.83
-0.037,0.854625,11.583,17.733,10.89,47.66
-0.042,0.88575,11.598,17.728,10.89,47.51
-0.025,0.91675,11.613,17.722,10.89,47.39
0.0,0.94525,11.625,17.714,10.89,47.28
-0.093,0.92975,11.639,17.704,10.89,47.2
0.231,0.966,11.649,17.697,10.89,47.14
-0.012,0.922,11.657,17.687,10.89,47.05
0.083,1.04625,11.665,17.679,10.89,46.95
0.37,1.007375,11.67,17.673,10.89,46.86
0.17,0.968625,11.674,17.668,10.89,46.83
-0.047,0.942625,11.676,17.667,10.89,46.83
-0.047,0.971125,11.676,17.671,10.89,46.82
-0.042,0.890875,11.676,17.679,10.89,46.73
-0.054,0.97375,11.675,17.693,10.89,46.66
-0.025,0.94525,11.671,17.711,10.89,46.64
-0.024,0.903875,11.667,17.731,10.89,46.61
0.071,0.896125,11.662,17.752,10.89,46.63
0.084,0.922,11.657,17.775,10.89,46.65
-0.021,0.927125,11.655,17.8,10.89,46.63
0.083,0.896125,11.65,17.823,10.89,46.6
0.371,0.919375,11.647,17.844,10.89,46.6
0.105,0.88575,11.641,17.88,10.89,46.62
-0.064,0.953,11.64,17.882,10.89,46.62
-0.058,0.98925,11.638,17.896,10.89,46.61
-0.055,0.9945,11.637,17.908,10.89,46.55
-0.069,0.98925,11.637,17.918,10.89,46.53
-0.028,0.955625,11.635,17.924,10.89,46.53
-0.061,0.896125,11.634,17.927,10.89,46.53
-0.046,0.940125,11.634,17.928,10.89,46.53
0.14,0.9945,11.634,17.927,10.89,46.57
-0.025,0.932375,11.634,17.922,10.89,46.58
0.104,0.88575,11.632,17.916,10.89,46.55
0.379,0.852,11.629,17.908,10.89,46.55
0.036,0.88825,11.627,17.897,10.89,46.59
-0.073,0.9245,11.623,17.886,10.89,46.62
-0.067,0.95825,11.62,17.872,10.89,46.62
-0.063,0.942625,11.615,17.857,10.89,46.59
-0.073,0.966,11.61,17.842,10.89,46.56
-0.005,1.00225,11.604,17.827,10.89,46.56
-0.089,1.0385,11.596,17.809,10.89,46.54
0.21,1.007375,11.589,17.789,10.89,46.54
-0.103,0.9945,11.579,17.772,10.89,46.58
0.0,0.932375,11.571,17.752,10.89,46.56
0.184,0.8935,11.562,17.732,10.89,46.54
0.332,0.976375,11.552,17.712,10.89,46.54
-0.041,0.95825,11.539,17.693,10.89,46.55
-0.079,0.91425,11.529,17.675,10.89,46.56
-0.07,0.854625,11.518,17.655,10.89,46.55
-0.076,0.903875,11.507,17.639,10.89,46.52
-0.068,0.883125,11.494,17.623,10.89,46.5
-0.027,0.942625,11.483,17.609,10.89,46.49
-0.121,0.922,11.471,17.595,10.89,46.48
0.161,0.909,11.46,17.585,10.89,46.47
-0.052,0.9815,11.447,17.579,10.89,46.49
0.024,1.023,11.435,17.575,10.89,46.48
0.273,0.98675,11.422,17.575,10.89,46.47
0.203,0.968625,11.41,17.579,10.89,46.47
-0.077,0.96075,11.397,17.585,10.89,46.47
-0.083,0.94525,11.385,17.595,10.89,46.46
-0.075,0.955625,11.373,17.609,10.89,46.44
-0.084,0.942625,11.362,17.625,10.89,46.47
-0.048,0.90125,11.35,17.645,10.89,46.48
-0.065,0.8365,11.34,17.665,10.89,46.49
-0.103,0.85975,11.332,17.688,10.89,46.43
0.151,0.94525,11.324,17.713,10.89,46.42
-0.042,0.898625,11.317,17.738,10.89,46.44
0.078,0.927125,11.312,17.765,10.89,46.49
0.352,0.927125,11.309,17.79,10.89,46.56
0.046,0.9505,11.308,17.815,10.89,46.62
-0.089,0.9815,11.308,17.836,10.89,46.7
-0.085,0.984125,11.312,17.859,10.89,46.78
-0.085,0.991875,11.317,17.875,10.89,46.82
-0.076,0.95825,11.323,17.89,10.89,46.91
-0.062,0.932375,11.33,17.903,10.89,47.06
-0.149,0.906375,11.342,17.912,10.89,47.22
0.143,0.971125,11.353,17.92,10.89,47.4
-0.068,0.9505,11.367,17.922,10.89,47.55
0.028,0.898625,11.379,17.921,10.89,47.7
0.295,0.867625,11.391,17.919,10.89,47.87
0.064,0.909,11.404,17.913,10.88,48.08
-0.118,0.92975,11.415,17.903,10.88,48.29
-0.11,0.903875,11.425,17.893,10.88,48.48
-0.109,0.940125,11.434,17.881,10.88,48.61
-0.063,0.963375,11.441,17.867,10.88,48.74
-0.132,0.999625,11.449,17.851,10.88,48.91
0.092,1.004875,11.454,17.835,10.88,49.09
-0.109,1.004875,11.456,17.818,10.88,49.25
-0.059,1.01,11.459,17.799,10.88,49.41
0.103,0.963375,11.46,17.779,10.88,49.58
0.291,0.932375,11.46,17.759,10.88,49.75
-0.077,0.927125,11.458,17.739,10.88,49.92
-0.131,0.953,11.455,17.72,10.88,50.12
-0.12,0.976375,11.451,17.7,10.88,50.31
-0.081,0.854625,11.446,17.678,10.88,50.45
-0.129,0.818375,11.44,17.658,10.88,50.57
-0.089,0.896125,11.434,17.64,10.88,50.7
0.044,0.947875,11.426,17.619,10.88,50.85
-0.076,0.90125,11.419,17.599,10.88,50.95
0.063,0.96075,11.41,17.58,10.89,51.08
0.306,0.984125,11.4,17.562,10.89,51.23
-0.061,0.966,11.393,17.544,10.89,51.37
-0.147,0.966,11.383,17.527,10.89,51.51
-0.13,0.98925,11.37,17.512,10.89,51.67
-0.079,0.997125,11.36,17.498,10.89,51.78
-0.134,0.92975,11.35,17.488,10.88,51.89
-0.042,0.911625,11.34,17.482,10.88,52.0
0.013,0.9505,11.33,17.479,10.88,52.09
-0.071,0.968625,11.322,17.482,10.89,52.02
0.087,0.88825,11.313,17.494,10.89,51.94
0.323,0.82875,11.305,17.517,10.88,51.89
-0.06,0.8495,11.298,17.549,10.89,51.75
-0.127,0.91425,11.292,17.592,10.88,51.6
-0.113,0.883125,11.287,17.647,10.89,51.45
-0.068,0.9245,11.286,17.712,10.89,51.26
-0.082,0.940125,11.286,17.783,10.89,51.06
-0.14,0.976375,11.291,17.859,10.89,50.87
0.16,0.9945,11.301,17.936,10.89,50.69
-0.057,0.968625,11.316,18.014,10.89,50.48
0.071,0.997125,11.339,18.086,10.89,50.29
0.358,0.9245,11.368,18.153,10.89,50.13
0.029,0.9245,11.406,18.213,10.89,49.94
-0.099,0.8935,11.452,18.265,10.89,49.79
-0.089,0.991875,11.506,18.309,10.89,49.66
-0.08,0.8935,11.564,18.343,10.89,49.46
-0.022,0.852,11.629,18.369,10.89,49.27
-0.09,0.865,11.696,18.392,10.89,49.13
0.148,0.85725,11.765,18.405,10.9,49.03
-0.039,0.976375,11.835,18.413,10.89,48.93
-0.012,0.875375,11.904,18.416,10.89,48.79
0.158,0.898625,11.968,18.412,10.89,48.63
0.358,0.976375,12.029,18.405,10.89,48.46
-0.028,0.9815,12.085,18.393,10.89,48.4
-0.078,0.999625,12.133,18.377,10.89,48.33
-0.065,1.012625,12.178,18.359,10.89,48.15
-0.064,0.98925,12.218,18.339,10.89,47.92
-0.046,0.971125,12.253,18.315,10.89,47.8
-0.024,0.92975,12.28,18.29,10.89,47.7
-0.116,0.919375,12.303,18.261,10.89,47.57
0.201,0.97375,12.321,18.228,10.89,47.43
-0.035,0.865,12.335,18.195,10.89,47.3
0.053,0.8495,12.346,18.161,10.89,47.22
0.33,0.85975,12.354,18.125,10.88,47.15
0.027,0.890875,12.358,18.086,10.89,47.08
-0.082,0.877875,12.356,18.05,10.88,47.01
-0.075,0.984125,12.354,18.013,10.88,46.95
-0.068,0.91675,12.349,17.976,10.88,46.84
-0.077,0.922,12.339,17.939,10.88,46.73
-0.048,1.01525,12.317,17.87,10.88,46.67
-0.043,0.984125,12.317,17.866,10.89,46.67
-0.121,1.0385,12.304,17.834,10.88,46.69
0.202,0.9245,12.288,17.8,10.89,46.7
-0.039,0.9815,12.269,17.769,10.89,46.66
0.065,0.883125,12.251,17.737,10.88,46.62
0.35,0.947875,12.228,17.707,10.88,46.61
0.097,0.906375,12.207,17.679,10.88,46.66
-0.082,0.865,12.183,17.651,10.88,46.7
-0.076,0.862375,12.158,17.624,10.88,46.71
-0.072,0.90125,12.132,17.599,10.88,46.66
-0.083,0.95825,12.105,17.575,10.88,46.62
-0.039,0.890875,12.078,17.552,10.88,46.61
-0.063,0.919375,12.049,17.531,10.89,46.63
-0.092,0.903875,12.019,17.508,10.89,46.64
0.159,1.00225,11.987,17.488,10.89,46.66
-0.04,0.942625,11.956,17.47,10.88,46.65
0.082,1.0385,11.923,17.452,10.89,46.64
0.357,0.922,11.89,17.435,10.89,46.64
0.039,0.9945,11.857,17.42,10.89,46.68
-0.087,0.95825,11.824,17.407,10.89,46.69
-0.082,0.94525,11.792,17.396,10.89,46.69
-0.076,0.955625,11.759,17.386,10.88,46.67
-0.087,0.932375,11.726,17.383,10.88,46.64
-0.054,0.865,11.693,17.383,10.88,46.64
-0.061,0.927125,11.661,17.385,10.88,46.61
-0.117,0.8805,11.63,17.391,10.88,46.6
0.171,0.94525,11.599,17.401,10.88,46.63
-0.047,0.9505,11.571,17.415,10.88,46.66
0.068,0.963375,11.543,17.43,10.88,46.66
0.343,0.92975,11.518,17.449,10.88,46.64
0.06,0.963375,11.495,17.466,10.88,46.63
-0.084,0.968625,11.475,17.486,10.88,46.62
-0.076,1.0385,11.459,17.502,10.88,46.64
-0.071,0.955625,11.445,17.519,10.88,46.63
-0.079,0.9505,11.437,17.534,10.88,46.66
-0.046,0.9505,11.433,17.548,10.89,46.65
-0.037,0.966,11.431,17.557,10.88,46.64
-0.109,0.94525,11.434,17.564,10.88,46.6
0.201,0.867625,11.439,17.568,10.89,46.62
-0.023,0.846875,11.447,17.568,10.89,46.64
0.083,0.906375,11.457,17.567,10.89,46.67
0.36,0.88825,11.469,17.564,10.89,46.74
0.105,0.88575,11.48,17.559,10.89,46.77
-0.066,0.91425,11.492,17.553,10.89,46.8
-0.068,0.890875,11.502,17.544,10.89,46.8
-0.063,0.963375,11.514,17.538,10.89,46.79
-0.077,0.940125,11.524,17.528,10.89,46.86
-0.022,0.999625,11.533,17.518,10.89,47.0
-0.093,0.97375,11.541,17.508,10.89,47.13
0.184,0.978875,11.548,17.498,10.89,47.27
-0.115,0.997125,11.553,17.485,10.89,47.47
-0.017,0.95825,11.561,17.472,10.89,47.67
0.153,0.940125,11.566,17.46,10.89,47.84
0.322,0.870125,11.57,17.445,10.89,48.0
-0.045,0.846875,11.575,17.431,10.89,48.19
-0.089,0.890875,11.58,17.415,10.89,48.37
-0.079,0.875375,11.585,17.4,10.89,48.52
-0.085,0.88575,11.589,17.384,10.89,48.63
-0.031,0.91675,11.593,17.369,10.89,48.75
-0.12,0.940125,11.597,17.353,10.89,48.91
0.178,0.98675,11.598,17.338,10.89,49.1
-0.124,1.041125,11.599,17.323,10.89,49.27
-0.006,0.968625,11.599,17.308,10.89,49.43
0.191,1.01,11.599,17.292,10.89,49.58
0.271,1.00225,11.597,17.277,10.89,49.71
-0.074,0.955625,11.593,17.263,10.89,49.86
-0.097,0.91425,11.59,17.248,10.89,50.04
-0.091,0.95825,11.583,17.234,10.89,50.2
-0.073,0.953,11.576,17.221,10.89,50.32
-0.076,0.8935,11.568,17.209,10.89,50.44
-0.152,0.84425,11.559,17.196,10.89,50.59
0.154,0.870125,11.549,17.182,10.89,50.73
-0.063,0.877875,11.537,17.171,10.89,50.83
0.048,0.932375,11.526,17.16,10.89,50.95
0.32,0.942625,11.513,17.149,10.89,51.06
0.036,0.922,11.498,17.137,10.89,51.18
-0.119,0.966,11.481,17.128,10.89,51.33
-0.113,1.012625,11.466,17.12,10.89,51.48
-0.095,1.00225,11.45,17.112,10.89,51.54
-0.065,1.0255,11.433,17.107,10.89,51.6
-0.158,0.906375,11.415,17.104,10.89,51.68
0.145,0.896125,11.398,17.103,10.89,51.78
-0.076,0.953,11.379,17.107,10.89,51.84
0.02,1.007375,11.361,17.113,10.89,51.84
0.293,0.9505,11.343,17.123,10.89,51.79
0.106,0.867625,11.324,17.135,10.89,51.66
-0.111,0.833875,11.306,17.15,10.89,51.54
-0.107,0.927125,11.289,17.168,10.89,51.45
-0.089,0.8805,11.271,17.188,10.89,51.28
-0.036,0.927125,11.255,17.208,10.89,51.08
-0.14,0.98925,11.242,17.227,10.89,50.93
0.164,0.890875,11.228,17.251,10.89,50.75
-0.094,0.984125,11.218,17.272,10.89,50.55
0.0,1.00225,11.21,17.295,10.89,50.39
0.246,1.04625,11.204,17.314,10.89,50.26
0.21,0.95825,11.2,17.334,10.89,50.09
-0.095,0.94525,11.199,17.353,10.89,49.92
-0.103,0.963375,11.199,17.369,10.89,49.75
-0.089,0.999625,11.203,17.383,10.89,49.55
-0.052,0.947875,11.208,17.396,10.89,49.32
-0.063,0.922,11.216,17.408,10.89,49.09
-0.125,0.88825,11.225,17.418,10.89,48.91
0.187,0.966,11.236,17.426,10.89,48.78
-0.046,0.934875,11.248,17.435,10.89,48.64
0.078,0.903875,11.261,17.446,10.89,48.51
0.364,0.94525,11.275,17.456,10.89,48.38
0.043,0.955625,11.287,17.47,10.89,48.24
-0.085,0.9375,11.298,17.484,10.89,48.15
-0.077,0.932375,11.31,17.503,10.89,48.05
-0.071,0.98675,11.32,17.526,10.89,47.89
-0.043,0.999625,11.333,17.548,10.89,47.74
-0.04,0.98675,11.342,17.574,10.89,47.61
-0.121,0.955625,11.35,17.601,10.89,47.5
0.204,0.942625,11.359,17.629,10.89,47.4
-0.036,0.997125,11.368,17.652,10.89,47.33
0.073,0.9505,11.375,17.677,10.89,47.25
0.364,0.821,11.385,17.7,10.89,47.16
0.079,0.890875,11.393,17.72,10.89,47.09
-0.083,0.90125,11.402,17.738,10.89,47.03
-0.078,0.963375,11.415,17.753,10.89,46.97
-0.077,0.934875,11.427,17.764,10.89,46.87
-0.089,0.963375,11.44,17.774,10.89,46.79
-0.035,0.9245,11.455,17.783,10.89,46.75
-0.084,0.971125,11.471,17.784,10.89,46.73
0.018,1.064375,11.487,17.785,10.89,46.72
0.04,1.08775,11.503,17.783,10.89,46.71
-0.039,0.984125,11.522,17.778,10.89,46.7
0.107,0.94525,11.541,17.769,10.89,46.7
0.35,0.942625,11.56,17.759,10.89,46.71
-0.022,0.978875,11.577,17.746,10.89,46.71
-0.098,0.903875,11.595,17.733,10.89,46.7
-0.089,0.867625,11.612,17.718,10.89,46.7
-0.089,0.839125,11.628,17.7,10.89,46.66
-0.101,0.896125,11.643,17.682,10.89,46.64
-0.062,0.903875,11.654,17.662,10.89,46.64
-0.072,0.94525,11.667,17.64,10.89,46.65
-0.124,0.927125,11.677,17.619,10.89,46.65
0.162,0.976375,11.682,17.595,10.89,46.66
-0.056,0.942625,11.686,17.573,10.89,46.65
0.059,0.98925,11.689,17.549,10.89,46.64
0.337,1.020375,11.686,17.524,10.89,46.65
0.04,0.997125,11.685,17.499,10.89,46.68
-0.102,0.966,11.68,17.477,10.89,46.67
-0.096,0.890875,11.672,17.454,10.9,46.67
-0.091,0.98675,11.663,17.43,10.9,46.64
-0.101,0.98675,11.654,17.406,10.9,46.61
-0.087,0.91675,11.644,17.385,10.9,46.6
-0.046,0.927125,11.633,17.363,10.89,46.6
-0.134,0.890875,11.619,17.342,10.89,46.62
0.154,0.896125,11.605,17.32,10.9,46.64
-0.065,0.906375,11.59,17.301,10.9,46.65
0.011,0.94525,11.575,17.28,10.9,46.63
0.261,0.95825,11.56,17.26,10.9,46.64
0.19,0.896125,11.542,17.242,10.89,46.65
-0.092,0.963375,11.526,17.223,10.89,46.66
-0.095,0.963375,11.507,17.206,10.9,46.65
-0.084,1.0255,11.49,17.189,10.89,46.64
-0.092,0.98675,11.471,17.174,10.89,46.61
-0.095,0.940125,11.453,17.159,10.9,46.59
-0.037,0.8935,11.433,17.144,10.89,46.59
-0.096,0.997125,11.414,17.129,10.9,46.6
0.139,0.968625,11.394,17.115,10.89,46.61
-0.075,0.90125,11.376,17.102,10.89,46.63
-0.021,0.810625,11.356,17.089,10.88,46.65
0.139,0.90125,11.334,17.078,10.88,46.64
0.342,0.9245,11.313,17.065,10.88,46.64
-0.03,0.92975,11.294,17.054,10.88,46.63
-0.087,0.932375,11.274,17.043,10.88,46.64
-0.074,0.934875,11.251,17.032,10.88,46.63
-0.079,0.95825,11.231,17.021,10.88,46.61
-0.091,0.978875,11.211,17.011,10.88,46.6
-0.053,1.007375,11.192,17.001,10.88,46.65
-0.067,1.033375,11.173,16.993,10.88,46.68
-0.085,0.940125,11.154,16.983,10.88,46.64
0.147,0.971125,11.134,16.976,10.88,46.65
-0.033,0.963375,11.115,16.968,10.88,46.68
0.087,0.953,11.095,16.961,10.88,46.71
0.353,0.942625,11.077,16.953,10.88,46.71
0.043,0.854625,11.057,16.948,10.88,46.71
-0.08,0.821,11.04,16.94,10.88,46.7
-0.071,0.88825,11.021,16.935,10.88,46.71
-0.071,0.88825,11.004,16.93,10.88,46.68
-0.085,0.98925,10.986,16.925,10.88,46.63
-0.053,0.999625,10.97,16.919,10.88,46.62
-0.057,0.91675,10.954,16.913,10.88,46.63
-0.102,0.8935,10.939,16.906,10.88,46.64
0.164,0.968625,10.924,16.9,10.88,46.67
-0.037,1.0385,10.909,16.894,10.88,46.66
0.078,0.96075,10.894,16.888,10.89,46.64
0.351,0.984125,10.879,16.881,10.89,46.64
0.055,0.96075,10.865,16.875,10.89,46.65
-0.085,0.9505,10.852,16.87,10.89,46.69
-0.079,0.96075,10.84,16.863,10.89,46.69
-0.076,0.870125,10.826,16.858,10.89,46.68
-0.091,0.85975,10.813,16.856,10.9,46.65
-0.049,0.9245,10.801,16.851,10.9,46.66
-0.086,0.896125,10.79,16.848,10.89,46.68
0.024,0.911625,10.778,16.846,10.89,46.75
0.005,0.91425,10.766,16.843,10.89,46.87
-0.042,0.966,10.755,16.842,10.89,47.01
0.096,0.911625,10.744,16.842,10.89,47.17
0.329,0.968625,10.734,16.84,10.89,47.36
-0.031,1.01775,10.724,16.837,10.89,47.56
-0.117,0.963375,10.714,16.835,10.89,47.73
-0.11,0.95825,10.706,16.832,10.89,47.89
-0.114,0.999625,10.699,16.83,10.89,48.02
-0.068,0.942625,10.69,16.827,10.89,48.16
-0.145,0.911625,10.684,16.826,10.89,48.34
0.122,0.90125,10.678,16.821,10.89,48.53
-0.164,0.862375,10.673,16.816,10.89,48.69
-0.063,0.870125,10.666,16.813,10.89,48.84
0.107,0.875375,10.661,16.808,10.89,49.0
0.268,0.90125,10.656,16.803,10.89,49.15
-0.103,0.91425,10.651,16.798,10.89,49.3
-0.15,0.942625,10.646,16.793,10.89,49.44
-0.14,0.92975,10.641,16.788,10.89,49.61
-0.132,0.94525,10.636,16.781,10.89,49.74
-0.109,0.976375,10.631,16.776,10.89,49.88
-0.195,0.984125,10.626,16.771,10.89,50.03
0.093,0.978875,10.621,16.766,10.89,50.2
-0.113,0.97375,10.613,16.761,10.89,50.36
-0.022,0.971125,10.608,16.756,10.89,50.5
0.244,0.984125,10.603,16.751,10.89,50.66
0.055,0.978875,10.598,16.746,10.89,50.78
-0.159,0.88825,10.591,16.74,10.89,50.94
-0.156,0.883125,10.585,16.734,10.89,51.1
-0.139,0.841625,10.579,16.727,10.89,51.18
-0.103,0.875375,10.571,16.723,10.89,51.22
-0.194,0.927125,10.566,16.719,10.89,51.29
0.093,0.932375,10.559,16.711,10.89,51.37
-0.122,1.004875,10.552,16.706,10.89,51.46
-0.026,0.934875,10.546,16.704,10.89,51.5
0.231,0.96075,10.539,16.699,10.9,51.43
0.135,0.966,10.534,16.695,10.9,51.26
-0.129,1.004875,10.526,16.693,10.9,51.14
-0.131,0.968625,10.521,16.693,10.9,51.03
-0.116,0.98925,10.516,16.694,10.9,50.85
-0.063,0.9375,10.51,16.699,10.9,50.6
-0.123,0.92975,10.504,16.713,10.9,50.4
0.07,0.898625,10.499,16.734,10.9,50.18
-0.049,0.85975,10.494,16.762,10.9,49.99
-0.047,0.896125,10.489,16.802,10.9,49.82
0.118,0.88575,10.486,16.855,10.9,49.68
0.333,0.8495,10.483,16.921,10.9,49.52
-0.054,0.922,10.483,16.997,10.9,49.33
-0.109,0.9505,10.484,17.082,10.9,49.12
-0.095,0.883125,10.49,17.171,10.9,48.9
-0.09,0.9245,10.5,17.268,10.9,48.72
-0.044,0.984125,10.516,17.363,10.9,48.52
-0.088,1.028125,10.539,17.456,10.9,48.33
-0.02,1.012625,10.571,17.543,10.9,48.2
0.087,0.947875,10.612,17.625,10.9,48.13
-0.033,0.94525,10.662,17.699,10.9,48.06
0.115,0.919375,10.72,17.765,10.9,47.9
0.373,0.922,10.786,17.822,10.9,47.75
-0.005,0.875375,10.859,17.873,10.9,47.68
-0.088,0.919375,10.937,17.918,10.88,47.66
-0.077,0.833875,11.018,17.955,10.89,47.61
-0.072,0.8805,11.1,17.984,10.88,47.43
-0.082,0.9375,11.18,18.009,10.88,47.28
-0.013,0.911625,11.261,18.029,10.89,47.16
-0.092,0.976375,11.338,18.042,10.89,47.08
0.21,0.934875,11.412,18.052,10.89,47.03
-0.094,0.963375,11.481,18.056,10.89,47.02
-0.003,1.0255,11.542,18.058,10.88,46.97
0.186,1.01775,11.6,18.052,10.89,46.9
0.348,0.963375,11.651,18.042,10.89,46.84
-0.038,0.95825,11.697,18.031,10.89,46.76
-0.077,0.906375,11.736,18.013,10.89,46.73
-0.067,0.963375,11.77,17.992,10.89,46.71
-0.066,0.906375,11.797,17.969,10.89,46.66
-0.079,0.826125,11.819,17.944,10.88,46.65
-0.032,0.821,11.836,17.916,10.89,46.63
-0.054,0.867625,11.851,17.885,10.88,46.59
-0.062,0.91425,11.862,17.85,10.88,46.58
0.162,0.940125,11.87,17.814,10.89,46.59
-0.023,0.932375,11.875,17.778,10.89,46.63
0.104,0.966,11.878,17.739,10.89,46.64
0.386,0.934875,11.876,17.703,10.89,46.64
0.048,0.98675,11.874,17.667,10.89,46.61
-0.073,0.9945,11.869,17.631,10.89,46.61
-0.065,0.947875,11.86,17.596,10.89,46.61
-0.059,0.968625,11.85,17.561,10.89,46.6
-0.071,0.940125,11.84,17.529,10.88,46.58
-0.065,0.9375,11.828,17.498,10.88,46.55
-0.011,0.953,11.814,17.47,10.88,46.54
-0.101,0.911625,11.798,17.442,10.88,46.54
0.186,0.90125,11.781,17.417,10.89,46.59
-0.045,0.852,11.761,17.394,10.88,46.6
0.028,0.87275,11.741,17.372,10.88,46.61
0.266,0.932375,11.717,17.352,10.88,46.6
0.262,0.91675,11.695,17.329,10.88,46.59
-0.063,0.9245,11.67,17.309,10.88,46.59
-0.078,0.953,11.643,17.291,10.88,46.63
-0.069,0.942625,11.616,17.272,10.88,46.64
-0.076,0.953,11.589,17.256,10.88,46.62
-0.087,1.043625,11.561,17.238,10.89,46.59
-0.054,0.963375,11.532,17.221,10.89,46.59
-0.059,0.97375,11.503,17.205,10.89,46.61
-0.103,0.91425,11.475,17.189,10.89,46.66
0.17,0.968625,11.445,17.173,10.89,46.7
-0.037,0.934875,11.415,17.159,10.89,46.74
0.077,0.909,11.385,17.142,10.89,46.75
0.361,0.85975,11.355,17.128,10.89,46.71
0.062,0.8495,11.325,17.113,10.89,46.67
-0.085,0.8805,11.296,17.099,10.88,46.69
-0.081,0.927125,11.266,17.085,10.89,46.74
-0.074,0.971125,11.238,17.073,10.88,46.74
-0.088,0.9375,11.21,17.06,10.89,46.72
-0.079,0.90125,11.183,17.048,10.88,46.74
-0.048,1.035875,11.155,17.036,10.88,46.75
-0.133,1.0255,11.129,17.025,10.88,46.85
0.146,0.9505,11.102,17.013,10.89,47.03
-0.069,0.976375,11.076,17.002,10.89,47.25
0.012,0.9815,11.052,16.991,10.89,47.47
0.276,0.919375,11.029,16.981,10.89,47.66
0.155,0.953,11.004,16.968,10.89,47.86
-0.109,0.90125,10.981,16.961,10.89,48.05
-0.122,0.8805,10.959,16.951,10.88,48.25
-0.112,0.88575,10.938,16.944,10.88,48.41
-0.107,0.875375,10.917,16.935,10.88,48.55
-0.082,0.898625,10.898,16.928,10.89,48.72
-0.17,0.898625,10.878,16.921,10.89,48.91
0.114,0.968625,10.859,16.914,10.89,49.12
-0.093,0.92975,10.842,16.906,10.89,49.3
-0.004,0.940125,10.825,16.899,10.89,49.46
0.262,0.991875,10.807,16.891,10.89,49.62
0.11,1.020375,10.793,16.885,10.89,49.8
-0.131,0.963375,10.78,16.876,10.89,50.02
-0.131,0.9945,10.766,16.869,10.89,50.16
-0.126,0.96075,10.754,16.862,10.89,50.24
-0.083,0.91675,10.743,16.853,10.89,50.32
-0.131,0.968625,10.731,16.846,10.89,50.44
-0.025,0.88825,10.721,16.838,10.89,50.58
0.004,0.890875,10.711,16.829,10.89,50.7
-0.061,0.877875,10.701,16.822,10.89,50.8
0.084,0.870125,10.691,16.812,10.89,50.88
0.328,0.8935,10.682,16.803,10.89,50.84
-0.035,0.966,10.672,16.794,10.89,50.74
-0.111,0.919375,10.664,16.784,10.89,50.61
-0.096,0.883125,10.654,16.777,10.89,50.5
-0.087,0.96075,10.644,16.769,10.89,50.3
-0.036,1.041125,10.636,16.761,10.89,50.11
-0.135,0.984125,10.627,16.755,10.89,49.92
0.166,0.955625,10.617,16.749,10.89,49.72
-0.085,0.9505,10.607,16.744,10.89,49.52
0.007,0.9375,10.597,16.741,10.89,49.33
0.254,0.9945,10.587,16.741,10.89,49.14
0.236,0.906375,10.579,16.745,10.89,48.98
-0.077,0.909,10.57,16.752,10.89,48.83
-0.088,0.852,10.56,16.762,10.89,48.68
-0.074,0.890875,10.551,16.776,10.89,48.49
-0.067,0.919375,10.542,16.791,10.89,48.3
-0.008,0.932375,10.536,16.811,10.89,48.13
-0.111,1.007375,10.53,16.832,10.89,47.99
0.19,0.953,10.526,16.852,10.89,47.87
-0.055,0.96075,10.525,16.872,10.89,47.76
0.027,0.9815,10.528,16.892,10.89,47.66
0.269,0.98925,10.531,16.908,10.89,47.53
0.267,0.947875,10.54,16.925,10.89,47.41
-0.061,0.98925,10.551,16.938,10.89,47.33
-0.074,0.942625,10.564,16.951,10.89,47.24
-0.065,0.953,10.583,16.963,10.9,47.12
-0.067,0.903875,10.6,16.973,10.9,46.98
-0.024,0.903875,10.621,16.983,10.89,46.89
-0.046,0.87275,10.642,16.992,10.89,46.83
-0.069,0.797625,10.665,16.998,10.89,46.8
0.171,0.862375,10.686,17.005,10.89,46.78
-0.019,0.88575,10.707,17.01,10.89,46.76
0.107,0.940125,10.727,17.012,10.89,46.72
0.386,0.919375,10.747,17.014,10.89,46.71
0.05,0.88575,10.765,17.014,10.89,46.71
-0.074,0.984125,10.781,17.012,10.89,46.72
-0.066,0.999625,10.797,17.007,10.89,46.71
-0.062,0.991875,10.812,17.001,10.89,46.67
-0.073,0.966,10.823,16.995,10.89,46.63
-0.033,1.028125,10.837,16.988,10.89,46.64
-0.049,0.9375,10.848,16.978,10.9,46.62
-0.079,0.98925,10.856,16.971,10.9,46.63
0.161,0.940125,10.864,16.961,10.9,46.66
-0.031,0.875375,10.869,16.951,10.9,46.66
0.088,0.8495,10.874,16.941,10.89,46.65
0.051,0.88575,10.879,16.931,10.9,46.64
-0.031,0.906375,10.881,16.921,10.9,46.69
-0.091,0.955625,10.883,16.911,10.89,46.69
-0.089,0.940125,10.882,16.903,10.9,46.69
-0.085,0.88825,10.881,16.895,10.9,46.64
-0.1,0.911625,10.874,16.886,10.89,46.64
-0.086,1.0385,10.876,16.887,10.89,46.64
-0.042,1.033375,10.872,16.884,10.89,46.64
-0.137,1.033375,10.867,16.882,10.89,46.64
0.151,0.976375,10.862,16.88,10.89,46.66
-0.072,0.97375,10.855,16.879,10.9,46.65
0.006,0.8935,10.848,16.879,10.89,46.63
0.266,0.932375,10.841,16.878,10.89,46.64
0.159,0.9245,10.833,16.875,10.89,46.68
-0.108,0.898625,10.823,16.873,10.89,46.7
-0.114,0.808,10.816,16.87,10.89,46.69
-0.107,0.922,10.806,16.868,10.89,46.65
-0.118,0.9245,10.798,16.863,10.9,46.65
-0.126,0.95825,10.788,16.861,10.9,46.65
-0.07,0.955625,10.778,16.856,10.9,46.67
-0.122,0.890875,10.769,16.849,10.9,46.68
0.071,0.9505,10.759,16.843,10.9,46.69
-0.068,0.997125,10.749,16.836,10.9,46.7
-0.061,0.98925,10.739,16.828,10.89,46.67
0.088,0.940125,10.729,16.821,10.9,46.67
0.317,0.940125,10.716,16.812,10.89,46.73
-0.051,0.97375,10.706,16.803,10.9,46.76
-0.131,0.953,10.696,16.794,10.9,46.79
-0.117,0.906375,10.684,16.784,10.9,46.78
-0.115,0.91425,10.672,16.775,10.9,46.74
-0.126,0.82875,10.659,16.765,10.9,46.69
-0.077,0.81325,10.647,16.756,10.9,46.69
-0.114,0.966,10.634,16.745,10.9,46.7
-0.03,0.909,10.621,16.735,10.9,46.73
0.021,0.934875,10.608,16.724,10.89,46.76
-0.067,0.91425,10.596,16.712,10.9,46.74
0.073,0.9245,10.584,16.701,10.9,46.71
0.324,1.01775,10.57,16.69,10.89,46.69
-0.029,0.978875,10.557,16.679,10.89,46.7
-0.122,0.94525,10.544,16.668,10.89,46.72
-0.115,0.92975,10.531,16.657,10.9,46.75
-0.113,0.978875,10.519,16.645,10.89,46.72
-0.125,0.991875,10.506,16.635,10.9,46.69
-0.073,0.940125,10.494,16.625,10.89,46.68
-0.116,0.898625,10.482,16.615,10.9,46.67
0.024,0.852,10.469,16.605,10.89,46.66
-0.032,0.84425,10.458,16.596,10.9,46.7
-0.06,0.88825,10.445,16.587,10.89,46.71
0.083,0.953,10.433,16.577,10.9,46.71
0.324,0.966,10.422,16.568,10.9,46.71
-0.037,0.963375,10.411,16.558,10.9,46.71
-0.115,0.94525,10.401,16.551,10.9,46.73
-0.103,1.01775,10.388,16.541,10.9,46.72
-0.1,0.947875,10.377,16.535,10.9,46.71
-0.109,0.999625,10.366,16.527,10.9,46.67
-0.041,1.01775,10.356,16.52,10.9,46.68
-0.125,0.98675,10.346,16.512,10.9,46.69
0.168,0.947875,10.336,16.505,10.9,46.68
-0.124,0.9505,10.324,16.498,10.89,46.7
-0.019,0.940125,10.314,16.491,10.9,46.69
0.177,0.942625,10.304,16.485,10.9,46.69
0.291,0.870125,10.294,16.478,10.9,46.7
-0.067,0.88575,10.284,16.471,10.9,46.72
-0.095,0.927125,10.275,16.465,10.9,46.73
-0.086,0.9245,10.266,16.458,10.9,46.73
-0.093,0.922,10.256,16.453,10.9,46.73
-0.083,0.91675,10.249,16.448,10.9,46.77
-0.061,0.91675,10.239,16.443,10.9,46.85
-0.143,1.007375,10.232,16.438,10.9,46.94
0.15,0.98675,10.223,16.43,10.9,47.06
-0.063,0.97375,10.214,16.425,10.9,47.23
0.03,1.007375,10.207,16.421,10.9,47.4
0.298,0.927125,10.197,16.416,10.9,47.59
-0.01,0.91425,10.189,16.408,10.9,47.85
-0.107,0.922,10.182,16.403,10.9,48.13
-0.101,0.909,10.174,16.398,10.9,48.41
-0.093,0.896125,10.168,16.393,10.9,48.59
-0.073,0.862375,10.161,16.388,10.9,48.75
-0.087,0.87275,10.146,16.379,10.9,49.1
-0.142,0.9505,10.145,16.378,10.9,49.12
0.131,0.927125,10.14,16.373,10.9,49.4
-0.068,0.94525,10.132,16.368,10.9,49.83
0.043,0.896125,10.126,16.363,10.9,50.14
0.312,0.927125,10.12,16.358,10.9,50.31
0.011,0.963375,10.114,16.356,10.9,50.43
-0.131,1.023,10.106,16.351,10.9,50.55
-0.127,0.971125,10.101,16.346,10.9,50.73
-0.118,0.96075,10.096,16.341,10.9,50.84
-0.078,0.940125,10.089,16.338,10.9,50.92
-0.171,0.906375,10.082,16.333,10.9,51.04
0.119,0.940125,10.076,16.331,10.9,51.24
-0.132,0.8935,10.071,16.328,10.9,51.43
-0.036,0.87275,10.064,16.324,10.9,51.59
0.195,0.875375,10.059,16.321,10.9,51.74
0.182,0.963375,10.053,16.318,10.9,51.87
-0.131,0.932375,10.047,16.314,10.9,52.05
-0.144,0.9375,10.042,16.311,10.9,52.23
-0.125,0.919375,10.037,16.31,10.9,52.36
-0.074,0.877875,10.032,16.309,10.9,52.49
-0.176,1.01775,10.027,16.309,10.9,52.6
0.135,0.97375,10.022,16.313,10.9,52.71
-0.148,0.9945,10.017,16.317,10.9,52.78
-0.035,0.971125,10.013,16.327,10.9,52.83
0.2,0.978875,10.009,16.34,10.9,52.9
0.211,0.955625,10.004,16.357,10.9,52.88
-0.116,0.91675,9.999,16.378,10.9,52.82
-0.127,0.934875,9.997,16.404,10.9,52.77
-0.106,0.898625,9.994,16.434,10.9,52.66
-0.038,0.8495,9.991,16.468,10.9,52.52
-0.136,0.903875,9.991,16.504,10.9,52.32
0.2,0.98675,9.991,16.54,10.9,52.11
-0.148,0.94525,9.994,16.576,10.9,51.95
-0.018,0.940125,9.999,16.612,10.9,51.81
0.197,0.8495,10.008,16.647,10.9,51.66
0.274,0.976375,10.017,16.679,10.9,51.5
-0.085,1.023,10.029,16.707,10.9,51.32
-0.105,0.98675,10.044,16.736,10.9,51.12
-0.087,1.023,10.061,16.76,10.9,50.93
-0.067,1.00225,10.078,16.78,10.9,50.75
-0.031,0.9245,10.098,16.798,10.9,50.59
-0.123,0.932375,10.118,16.813,10.9,50.44
0.193,0.896125,10.138,16.827,10.9,50.28
-0.043,0.940125,10.16,16.836,10.9,50.07
0.049,0.865,10.177,16.843,10.9,49.89
0.337,0.826125,10.198,16.847,10.9,49.73
0.158,0.867625,10.217,16.85,10.9,49.54
-0.073,0.922,10.235,16.848,10.9,49.38
-0.072,0.909,10.252,16.846,10.9,49.25
-0.058,0.903875,10.268,16.841,10.9,49.05
-0.067,0.922,10.281,16.834,10.9,48.86
-0.01,0.978875,10.294,16.824,10.9,48.68
-0.065,0.98925,10.306,16.816,10.9,48.55
0.125,0.976375,10.316,16.804,10.9,48.44
0.014,1.01775,10.324,16.791,10.9,48.33
-0.002,0.966,10.333,16.776,10.9,48.24
0.159,0.955625,10.338,16.764,10.9,48.13
0.398,0.953,10.345,16.746,10.9,48.05
0.003,0.94525,10.347,16.731,10.9,47.96
-0.062,0.9245,10.35,16.714,10.9,47.89
-0.05,0.8365,10.351,16.696,10.9,47.78
-0.047,0.87275,10.351,16.679,10.9,47.63
-0.058,0.95825,10.351,16.662,10.9,47.51
-0.03,0.92975,10.349,16.646,10.9,47.42
-0.013,0.966,10.347,16.629,10.9,47.34
-0.101,0.976375,10.342,16.612,10.9,47.26
0.235,0.978875,10.34,16.597,10.9,47.18
-0.019,0.97375,10.335,16.582,10.9,47.11
0.078,1.00225,10.33,16.568,10.9,47.03
0.367,1.0385,10.323,16.555,10.9,46.98
0.15,0.997125,10.316,16.541,10.9,46.94
-0.063,0.88825,10.309,16.528,10.9,46.89
-0.059,0.927125,10.301,16.516,10.9,46.85
-0.053,0.976375,10.294,16.504,10.9,46.79
-0.061,0.896125,10.285,16.493,10.9,46.72
-0.064,0.841625,10.276,16.481,10.9,46.7
-0.001,0.80025,10.266,16.469,10.9,46.64
-0.088,0.898625,10.256,16.459,10.9,46.61
0.225,0.88575,10.249,16.449,10.9,46.63
-0.085,0.922,10.238,16.438,10.9,46.68
0.012,0.890875,10.227,16.426,10.9,46.71
0.213,0.898625,10.217,16.417,10.9,46.69
0.333,0.966,10.207,16.407,10.9,46.65
-0.042,0.966,10.197,16.397,10.9,46.66
-0.072,1.007375,10.187,16.387,10.9,46.71
-0.061,0.999625,10.174,16.378,10.9,46.71
-0.065,0.9945,10.164,16.369,10.9,46.65
-0.077,0.91675,10.155,16.361,10.9,46.61
-0.035,0.92975,10.145,16.353,10.9,46.6
-0.052,0.97375,10.135,16.346,10.9,46.61
-0.059,0.883125,10.122,16.337,10.9,46.63
0.167,0.85975,10.112,16.331,10.9,46.68
-0.022,0.87275,10.102,16.322,10.9,46.71
0.098,0.934875,10.092,16.316,10.9,46.74
0.378,0.922,10.082,16.309,10.9,46.79
0.051,0.9505,10.072,16.302,10.9,46.86
-0.079,0.9245,10.063,16.295,10.9,46.96
-0.077,0.91425,10.054,16.289,10.9,47.07
-0.069,0.97375,10.045,16.281,10.9,47.17
-0.083,0.991875,10.035,16.276,10.9,47.29
-0.062,0.98925,10.027,16.269,10.9,47.42
-0.051,0.97375,10.018,16.264,10.9,47.6
-0.113,0.934875,10.008,16.256,10.9,47.79
0.181,0.932375,10.0,16.251,10.9,47.97
-0.034,0.919375,9.99,16.244,10.9,48.14
0.074,0.909,9.983,16.239,10.9,48.33
0.358,0.88575,9.976,16.234,10.9,48.53
0.089,0.826125,9.968,16.227,10.9,48.75
-0.075,0.8935,9.961,16.222,10.9,48.94
-0.073,0.92975,9.952,16.217,10.9,49.12
-0.064,0.947875,9.945,16.209,10.9,49.28
-0.06,0.85975,9.937,16.207,10.9,49.44
-0.032,0.883125,9.931,16.202,10.9,49.62
-0.113,0.947875,9.923,16.198,10.9,49.81
0.177,0.919375,9.917,16.194,10.9,49.99
-0.036,0.97375,9.91,16.192,10.9,50.19
0.047,0.95825,9.905,16.189,10.9,50.34
0.315,1.004875,9.897,16.187,10.9,50.45
0.174,0.909,9.892,16.184,10.9,50.58
-0.079,0.927125,9.886,16.183,10.9,50.75
-0.086,0.97375,9.88,16.181,10.9,50.93
-0.08,0.909,9.875,16.178,10.9,51.05
-0.056,0.846875,9.873,16.176,10.9,51.16
-0.078,0.896125,9.869,16.174,10.9,51.3
-0.106,0.90125,9.868,16.173,10.9,51.46
0.151,0.968625,9.865,16.173,10.9,51.63
-0.041,0.940125,9.864,16.171,10.9,51.76
0.083,0.88825,9.862,16.168,10.9,51.89
0.36,0.953,9.862,16.166,10.9,51.99
0.031,0.9505,9.86,16.163,10.9,52.13
-0.1,0.991875,9.86,16.159,10.9,52.26
-0.094,1.048875,9.859,16.156,10.9,52.37
-0.072,0.947875,9.859,16.154,10.9,52.43
-0.043,0.98675,9.859,16.151,10.9,52.51
-0.137,0.88575,9.859,16.147,10.9,52.62
0.17,0.96075,9.859,16.145,10.9,52.69
-0.058,0.92975,9.858,16.14,10.9,52.66
0.036,0.85975,9.857,16.136,10.9,52.59
0.311,0.839125,9.857,16.132,10.9,52.5
0.167,0.906375,9.854,16.127,10.9,52.36
-0.086,0.922,9.853,16.122,10.9,52.23
-0.087,0.984125,9.852,16.12,10.9,52.09
-0.073,0.953,9.85,16.115,10.9,51.86
-0.04,0.947875,9.848,16.11,10.9,51.63
-0.053,0.9505,9.845,16.107,10.9,51.39
-0.107,1.03075,9.843,16.102,10.9,51.17
0.203,1.04625,9.84,16.097,10.9,50.96
-0.031,0.97375,9.838,16.092,10.9,50.76
0.091,0.9945,9.834,16.089,10.9,50.59
0.387,0.94525,9.83,16.085,10.9,50.39
0.068,0.947875,9.829,16.08,10.9,50.17
-0.073,0.96075,9.825,16.075,10.9,49.96
-0.063,0.865,9.822,16.07,10.9,49.73
-0.053,0.769125,9.818,16.065,10.9,49.46
-0.06,0.865,9.814,16.063,10.9,49.22
0.006,0.877875,9.81,16.058,10.9,49.04
-0.092,0.955625,9.804,16.055,10.9,48.86
0.231,0.927125,9.8,16.05,10.9,48.64
-0.018,0.88575,9.797,16.045,10.9,48.45
0.051,0.898625,9.795,16.04,10.9,48.28
0.239,0.978875,9.791,16.036,10.9,48.12
0.313,0.98675,9.786,16.033,10.9,48.0
-0.047,1.064375,9.781,16.028,10.9,47.91
-0.065,1.033375,9.775,16.019,10.9,47.69
-0.056,0.96075,9.773,16.018,10.9,47.67
-0.062,0.9245,9.77,16.014,10.9,47.5
-0.062,0.95825,9.766,16.01,10.9,47.35
-0.002,0.903875,9.761,16.005,10.9,47.28
-0.098,0.87275,9.756,16.0,10.9,47.23
0.191,0.867625,9.751,15.997,10.9,47.15
-0.051,0.8805,9.746,15.99,10.9,47.07
0.02,0.942625,9.741,15.985,10.9,46.98
0.251,0.966,9.738,15.982,10.9,46.93
0.272,0.919375,9.733,15.978,10.9,46.91
-0.06,0.91675,9.728,15.973,10.9,46.88
-0.073,0.92975,9.723,15.968,10.9,46.86
-0.066,1.01525,9.717,15.963,10.9,46.81
-0.071,1.0255,9.711,15.958,10.9,46.77
-0.078,0.968625,9.706,15.953,10.9,46.73
-0.012,0.947875,9.701,15.95,10.9,46.74
-0.102,0.96075,9.696,15.946,10.9,46.81
0.205,0.927125,9.691,15.941,10.9,46.85
-0.095,0.927125,9.688,15.937,10.9,46.86
-0.001,0.906375,9.684,15.933,10.9,46.82
0.196,0.841625,9.679,15.928,10.9,46.79
0.309,0.896125,9.674,15.925,10.9,46.77
-0.058,0.942625,9.669,15.921,10.9,46.78
-0.087,0.909,9.664,15.917,10.9,46.78
-0.076,0.96075,9.659,15.913,10.9,46.77
-0.081,0.966,9.656,15.911,10.9,46.76
-0.092,1.012625,9.651,15.906,10.9,46.73
-0.027,0.98675,9.646,15.903,10.9,46.73
-0.099,1.01775,9.641,15.901,10.9,46.72
0.183,1.007375,9.639,15.897,10.9,46.73
-0.114,0.9505,9.634,15.896,10.9,46.76
-0.025,0.963375,9.63,15.893,10.9,46.75
0.145,0.91425,9.627,15.889,10.9,46.75
0.327,0.906375,9.622,15.886,10.9,46.77
-0.049,0.91425,9.619,15.884,10.9,46.79
-0.097,0.867625,9.614,15.88,10.9,46.8
-0.086,0.911625,9.611,15.879,10.9,46.77
-0.091,0.88825,9.607,15.874,10.9,46.76
-0.105,0.8935,9.602,15.871,10.9,46.72
-0.053,0.963375,9.599,15.869,10.9,46.75
-0.105,0.927125,9.594,15.866,10.9,46.77
0.074,0.867625,9.592,15.863,10.9,46.83
-0.052,0.968625,9.587,15.859,10.9,46.9
-0.054,0.947875,9.583,15.856,10.9,46.99
0.091,0.984125,9.579,15.851,10.9,47.14
0.323,0.991875,9.577,15.849,10.9,47.33
-0.048,0.999625,9.572,15.845,10.9,47.54
-0.124,0.953,9.569,15.841,10.9,47.72
-0.12,0.940125,9.566,15.836,10.9,47.89
-0.124,0.9375,9.562,15.834,10.9,48.04
-0.096,0.85975,9.558,15.83,10.9,48.19
-0.127,0.898625,9.554,15.826,10.9,48.36
-0.117,0.877875,9.552,15.824,10.9,48.52
0.051,0.906375,9.548,15.821,10.9,48.65
-0.092,0.953,9.544,15.818,10.9,48.83
0.03,0.9375,9.542,15.815,10.9,49.03
0.285,0.919375,9.538,15.813,10.9,49.21
-0.042,0.953,9.535,15.81,10.9,49.41
-0.155,0.942625,9.532,15.808,10.9,49.63
-0.146,0.997125,9.529,15.805,10.9,49.83
-0.142,1.056625,9.526,15.804,10.9,49.95
-0.091,0.98675,9.522,15.802,10.9,50.05
-0.188,0.9245,9.52,15.801,10.9,50.2
0.109,0.94525,9.517,15.798,10.9,50.39
-0.175,0.971125,9.515,15.796,10.9,50.56
-0.067,0.940125,9.511,15.793,10.9,50.76
0.144,0.865,9.509,15.792,10.9,50.93
0.194,0.87275,9.506,15.789,10.9,51.05
-0.146,0.947875,9.502,15.787,10.9,51.2
-0.165,0.955625,9.5,15.784,10.9,51.34
-0.151,0.9505,9.497,15.782,10.9,51.49
-0.091,0.96075,9.495,15.781,10.9,51.66
-0.193,0.927125,9.491,15.778,10.9,51.82
0.125,0.953,9.489,15.777,10.9,51.97
-0.209,0.947875,9.487,15.777,10.9,52.11
-0.076,1.01,9.484,15.776,10.9,52.22
0.129,1.03075,9.481,15.776,10.9,52.33
0.213,0.94525,9.479,15.778,10.9,52.43
-0.144,0.9245,9.476,15.781,10.9,52.5
-0.165,0.906375,9.474,15.784,10.9,52.58
-0.139,0.932375,9.47,15.789,10.9,52.63
-0.078,0.911625,9.469,15.794,10.9,52.69
-0.18,0.8805,9.466,15.8,10.9,52.76
0.122,0.85975,9.465,15.807,10.9,52.8
-0.139,0.9245,9.464,15.815,10.9,52.71
-0.034,0.91675,9.461,15.825,10.9,52.54
0.211,0.932375,9.461,15.836,10.9,52.38
0.188,0.927125,9.461,15.849,10.9,52.22
-0.12,0.947875,9.464,15.864,10.9,52.05
-0.127,0.922,9.465,15.883,10.9,51.93
-0.11,0.984125,9.469,15.902,10.9,51.75
-0.049,0.940125,9.472,15.926,10.9,51.51
-0.121,0.97375,9.477,15.951,10.9,51.26
0.149,1.01775,9.483,15.978,10.9,50.96
-0.115,0.942625,9.491,16.006,10.9,50.69
-0.04,0.92975,9.501,16.033,10.9,50.42
0.243,0.8805,9.511,16.058,10.9,50.18
0.239,0.852,9.521,16.081,10.9,49.94
-0.066,0.867625,9.534,16.104,10.9,49.69
-0.111,0.9245,9.548,16.124,10.9,49.46
-0.098,0.934875,9.562,16.142,10.9,49.24
-0.097,0.90125,9.594,16.168,10.9,48.76
-0.035,0.94525,9.597,16.169,10.9,48.74
-0.104,0.90125,9.614,16.179,10.9,48.57
0.149,0.955625,9.63,16.186,10.9,48.43
-0.073,1.004875,9.648,16.189,10.9,48.27
-0.024,1.028125,9.665,16.192,10.89,48.14
0.149,1.023,9.681,16.191,10.89,48.02
0.355,0.991875,9.696,16.189,10.89,47.91
-0.037,0.91425,9.711,16.187,10.89,47.79
-0.089,0.903875,9.723,16.182,10.89,47.67
-0.081,0.942625,9.736,16.177,10.89,47.53
-0.086,0.903875,9.747,16.169,10.9,47.38
-0.096,0.8365,9.757,16.163,10.89,47.32
-0.021,0.818375,9.766,16.156,10.89,47.23
-0.114,0.90125,9.773,16.148,10.89,47.13
0.202,0.976375,9.778,16.141,10.89,47.04
-0.114,0.922,9.783,16.133,10.89,46.98
-0.016,0.922,9.787,16.125,10.89,46.96
0.185,0.94525,9.79,16.116,10.89,46.95
0.307,0.927125,9.791,16.106,10.89,46.93
-0.066,1.035875,9.792,16.098,10.89,46.87
-0.091,1.033375,9.792,16.088,10.89,46.83
-0.08,0.971125,9.792,16.078,10.89,46.79
-0.084,0.984125,9.79,16.069,10.9,46.78
-0.094,0.96075,9.788,16.059,10.89,46.77
-0.044,0.934875,9.786,16.048,10.89,46.79
-0.081,0.934875,9.783,16.036,10.89,46.78
-0.058,0.862375,9.781,16.025,10.89,46.75
0.116,0.883125,9.778,16.014,10.89,46.72
-0.044,0.909,9.775,16.003,10.89,46.71
0.084,0.870125,9.771,15.991,10.89,46.77
0.357,0.8805,9.767,15.98,10.89,46.81
0.018,0.903875,9.763,15.969,10.89,46.82
-0.094,0.911625,9.758,15.959,10.89,46.79
-0.086,0.865,9.756,15.949,10.89,46.77
-0.081,0.976375,9.751,15.938,10.89,46.73
-0.094,0.97375,9.746,15.928,10.89,46.73
-0.071,0.98925,9.741,15.918,10.89,46.74
-0.05,0.966,9.734,15.909,10.89,46.75
-0.131,0.9505,9.728,15.899,10.89,46.76
0.184,0.91425,9.723,15.89,10.89,46.77
-0.046,0.96075,9.716,15.882,10.89,46.78
0.046,0.898625,9.71,15.872,10.89,46.78
0.323,0.85975,9.704,15.864,10.89,46.79
0.123,0.85725,9.696,15.856,10.89,46.8
-0.083,0.8935,9.689,15.847,10.9,46.81
-0.082,0.927125,9.681,15.84,10.89,46.82
-0.073,0.909,9.674,15.832,10.89,46.8
-0.084,0.97375,9.666,15.825,10.9,46.75
-0.074,0.940125,9.659,15.819,10.89,46.74
-0.03,0.8935,9.651,15.811,10.89,46.75
-0.116,1.012625,9.644,15.806,10.89,46.76
0.162,1.004875,9.636,15.802,10.89,46.81
-0.05,1.035875,9.629,15.797,10.9,46.85
0.025,0.997125,9.62,15.792,10.89,46.92
0.273,0.898625,9.613,15.787,10.9,47.04
0.21,0.953,9.607,15.784,10.9,47.21
-0.084,0.9375,9.598,15.781,10.89,47.37
-0.096,0.875375,9.592,15.779,10.9,47.54
-0.088,0.88575,9.584,15.778,10.9,47.71
-0.1,0.85725,9.577,15.776,10.9,47.88
-0.047,0.911625,9.57,15.777,10.9,48.02
-0.126,0.92975,9.563,15.778,10.9,48.14
0.156,0.898625,9.557,15.778,10.89,48.3
-0.152,0.932375,9.55,15.778,10.9,48.47
-0.045,0.91425,9.544,15.779,10.89,48.64
0.119,0.932375,9.539,15.781,10.89,48.81
0.282,1.012625,9.535,15.781,10.9,49.02
-0.092,1.023,9.53,15.781,10.9,49.23
-0.134,0.940125,9.525,15.781,10.9,49.43
-0.123,0.963375,9.52,15.781,10.9,49.61
-0.128,0.92975,9.516,15.781,10.9,49.73
-0.077,0.966,9.512,15.781,10.89,49.88
-0.17,0.919375,9.51,15.781,10.9,50.05
0.134,0.88575,9.506,15.781,10.9,50.24
-0.164,0.870125,9.504,15.777,10.9,50.42
-0.052,0.896125,9.501,15.776,10.9,50.62
0.151,0.92975,9.499,15.772,10.9,50.78
0.216,0.8935,9.497,15.769,10.89,50.94
-0.13,0.922,9.495,15.767,10.9,51.07
-0.15,0.927125,9.494,15.762,10.9,51.23
-0.138,0.9505,9.491,15.759,10.9,51.35
-0.091,0.966,9.489,15.754,10.9,51.49
-0.135,1.0255,9.487,15.753,10.9,51.63
-0.076,0.9815,9.486,15.749,10.9,51.76
0.042,0.955625,9.484,15.747,10.9,51.88
-0.071,0.91675,9.481,15.742,10.9,51.97
0.072,0.9245,9.479,15.737,10.9,52.02
0.323,0.9505,9.476,15.732,10.9,51.92
-0.042,0.88575,9.474,15.728,10.9,51.76
-0.13,0.85725,9.471,15.724,10.9,51.61
-0.114,0.922,9.469,15.719,10.9,51.5
-0.097,0.92975,9.466,15.717,10.9,51.28
-0.054,0.909,9.462,15.714,10.9,51.06
-0.148,0.9375,9.46,15.712,10.9,50.88
0.155,0.9945,9.456,15.711,10.9,50.71
-0.076,0.934875,9.452,15.711,10.9,50.53
0.01,0.927125,9.45,15.712,10.9,50.36
0.27,1.01525,9.445,15.714,10.9,50.18
0.183,1.03075,9.443,15.717,10.9,50.02
-0.092,0.991875,9.439,15.722,10.9,49.86
-0.093,0.947875,9.435,15.727,10.9,49.69
-0.079,0.91675,9.433,15.733,10.9,49.49
-0.059,0.96075,9.43,15.743,10.9,49.26
-0.027,0.91675,9.428,15.754,10.9,49.05
-0.121,0.91425,9.427,15.767,10.9,48.86
0.205,0.877875,9.427,15.782,10.9,48.7
-0.027,0.91425,9.427,15.799,10.9,48.55
0.066,0.91675,9.428,15.818,10.9,48.42
0.351,0.90125,9.43,15.838,10.9,48.28
0.165,0.932375,9.435,15.855,10.9,48.16
-0.056,0.906375,9.441,15.875,10.9,48.06
-0.05,0.919375,9.45,15.895,10.9,47.96
-0.042,0.940125,9.461,15.913,10.9,47.8
-0.037,1.033375,9.475,15.931,10.9,47.63
0.024,1.023,9.49,15.948,10.9,47.49
-0.077,0.966,9.506,15.963,10.9,47.38
0.215,0.953,9.525,15.974,10.9,47.29
-0.025,0.95825,9.543,15.984,10.9,47.19
0.054,0.971125,9.566,15.993,10.9,47.11
0.285,0.867625,9.586,16.0,10.9,47.03
0.3,0.911625,9.607,16.005,10.9,46.97
-0.032,0.87275,9.628,16.009,10.9,46.96
-0.046,0.96075,9.648,16.01,10.9,46.95
-0.038,0.911625,9.668,16.01,10.9,46.9
-0.045,0.896125,9.688,16.009,10.9,46.83
-0.018,0.927125,9.705,16.009,10.9,46.79
-0.017,0.9245,9.721,16.005,10.9,46.77
-0.092,0.997125,9.736,16.0,10.9,46.77
0.218,1.028125,9.749,15.995,10.9,46.78
-0.006,1.0385,9.762,15.989,10.9,46.82
0.103,1.007375,9.772,15.982,10.9,46.83
0.385,0.96075,9.779,15.973,10.9,46.83
0.119,0.934875,9.786,15.964,10.9,46.82
-0.048,0.968625,9.792,15.954,10.9,46.82
-0.044,0.927125,9.796,15.944,10.9,46.83
-0.042,0.88575,9.8,15.934,10.9,46.8
-0.055,0.883125,9.802,15.924,10.9,46.77
0.0,0.91425,9.802,15.914,10.9,46.76
-0.059,0.9245,9.803,15.904,10.9,46.76
0.112,0.883125,9.802,15.894,10.9,46.76
0.007,0.955625,9.801,15.882,10.9,46.79
0.0,0.883125,9.798,15.872,10.9,46.77
0.148,0.890875,9.796,15.862,10.9,46.77
0.38,0.92975,9.792,15.852,10.9,46.76
0.006,1.012625,9.788,15.845,10.9,46.79
-0.063,1.00225,9.783,15.835,10.9,46.82
-0.056,0.98675,9.776,15.825,10.9,46.83
-0.059,0.934875,9.771,15.817,10.9,46.81
-0.071,0.991875,9.763,15.807,10.9,46.76
-0.007,0.91425,9.757,15.8,10.9,46.75
-0.092,0.88825,9.751,15.792,10.9,46.74
0.201,0.911625,9.742,15.783,10.9,46.76
-0.104,0.862375,9.734,15.775,10.9,46.78
-0.005,0.8935,9.726,15.767,10.9,46.79
0.173,0.955625,9.717,15.759,10.9,46.77
0.328,0.95825,9.709,15.752,10.9,46.77
-0.042,0.94525,9.7,15.744,10.9,46.78
-0.081,0.92975,9.69,15.738,10.9,46.8
-0.071,1.007375,9.68,15.732,10.9,46.8
-0.078,0.991875,9.67,15.724,10.9,46.8
-0.079,0.98675,9.66,15.718,10.9,46.78
-0.027,0.963375,9.65,15.712,10.9,46.78
-0.12,0.909,9.64,15.705,10.9,46.81
0.147,0.92975,9.63,15.7,10.9,46.87
-0.071,0.91425,9.62,15.693,10.9,47.0
0.0,0.9375,9.608,15.687,10.9,47.12
0.225,0.903875,9.598,15.682,10.9,47.24
0.217,0.877875,9.588,15.675,10.9,47.41
-0.093,0.8935,9.578,15.67,10.9,47.6
-0.109,0.94525,9.568,15.665,10.9,47.79
-0.099,0.890875,9.558,15.66,10.9,47.94
-0.102,0.92975,9.548,15.655,10.89,48.09
-0.065,0.934875,9.538,15.65,10.9,48.25
-0.157,0.976375,9.531,15.645,10.9,48.43
0.107,0.991875,9.522,15.642,10.9,48.65
-0.102,1.041125,9.513,15.639,10.9,48.81
-0.018,1.00225,9.505,15.636,10.9,48.94
0.209,0.963375,9.496,15.634,10.9,49.08
0.164,0.94525,9.488,15.632,10.9,49.25
-0.125,0.96075,9.481,15.631,10.9,49.48
-0.135,0.92975,9.472,15.631,10.9,49.71
-0.13,0.922,9.466,15.63,10.9,49.89
-0.084,0.911625,9.458,15.629,10.9,49.99
-0.15,0.903875,9.451,15.629,10.9,50.13
0.021,0.966,9.445,15.628,10.9,50.32
-0.084,0.87275,9.44,15.627,10.9,50.53
-0.077,0.90125,9.433,15.625,10.9,50.73
0.074,0.87275,9.428,15.624,10.9,50.89
0.283,0.942625,9.423,15.622,10.9,51.04
-0.085,0.911625,9.418,15.619,10.9,51.19
-0.149,0.966,9.413,15.617,10.9,51.35
-0.134,1.03075,9.408,15.614,10.9,51.5
-0.086,0.963375,9.404,15.61,10.9,51.59
-0.131,0.942625,9.4,15.608,10.9,51.66
-0.096,0.92975,9.395,15.605,10.9,51.76
0.053,0.940125,9.392,15.603,10.9,51.84
-0.072,0.909,9.388,15.598,10.9,51.9
0.069,0.883125,9.383,15.595,10.9,51.98
0.318,0.877875,9.38,15.592,10.9,52.05
-0.037,0.896125,9.375,15.589,10.9,52.13
-0.125,0.922,9.372,15.585,10.9,52.22
-0.112,0.8935,9.368,15.583,10.9,52.25
-0.058,0.940125,9.363,15.579,10.9,52.1
-0.092,0.88575,9.361,15.578,10.9,51.95
-0.104,0.870125,9.356,15.577,10.9,51.82
0.124,0.976375,9.352,15.577,10.9,51.67
-0.05,1.07475,9.348,15.578,10.9,51.45
0.086,1.033375,9.343,15.58,10.9,51.23
0.356,0.9815,9.341,15.585,10.9,51.03
0.006,0.94525,9.336,15.59,10.9,50.83
-0.097,0.976375,9.333,15.599,10.9,50.67
-0.086,0.940125,9.33,15.606,10.9,50.52
-0.073,0.91675,9.327,15.615,10.9,50.3
-0.022,0.88575,9.325,15.624,10.9,50.09
-0.125,0.8805,9.322,15.632,10.9,49.91
0.185,0.966,9.322,15.641,10.9,49.7
-0.071,0.88575,9.323,15.65,10.9,49.48
0.017,0.940125,9.325,15.657,10.9,49.29
0.26,0.953,9.327,15.661,10.9,49.13
0.244,0.91675,9.331,15.665,10.9,48.97
-0.065,0.9245,9.333,15.669,10.9,48.79
-0.075,1.033375,9.338,15.67,10.9,48.63
-0.062,1.007375,9.344,15.671,10.9,48.47
-0.059,0.976375,9.351,15.671,10.9,48.29
0.003,0.91425,9.357,15.671,10.9,48.12
-0.099,0.966,9.363,15.671,10.9,48.0
0.213,0.9375,9.369,15.669,10.9,47.91
-0.059,0.9245,9.375,15.666,10.9,47.83
0.027,0.8935,9.38,15.665,10.9,47.73
0.253,0.896125,9.385,15.661,10.9,47.62
0.304,0.88575,9.389,15.656,10.9,47.5
-0.046,0.934875,9.393,15.652,10.9,47.41
-0.064,0.867625,9.394,15.646,10.9,47.35
-0.06,0.906375,9.397,15.64,10.9,47.23
-0.064,0.890875,9.399,15.635,10.9,47.1
-0.038,0.909,9.399,15.63,10.9,47.03
-0.038,0.94525,9.399,15.623,10.9,46.99
-0.116,1.067,9.399,15.618,10.9,46.94
0.201,1.0515,9.397,15.61,10.9,46.93
-0.033,0.942625,9.395,15.604,10.9,46.92
0.069,0.934875,9.394,15.598,10.9,46.87
0.355,0.909,9.392,15.591,10.9,46.82
0.097,0.922,9.389,15.584,10.9,46.81
-0.076,0.942625,9.385,15.578,10.9,46.8
-0.073,0.88575,9.383,15.573,10.9,46.82
-0.071,0.852,9.38,15.568,10.9,46.79
-0.081,0.896125,9.375,15.563,10.9,46.74
-0.035,0.909,9.373,15.558,10.9,46.73
-0.066,0.91675,9.368,15.553,10.9,46.74
-0.06,1.004875,9.365,15.55,10.9,46.76
0.135,0.94525,9.361,15.547,10.9,46.79
-0.032,0.934875,9.356,15.544,10.9,46.81
0.094,1.023,9.351,15.542,10.9,46.79
0.363,1.0385,9.346,15.543,10.9,46.79
0.028,0.97375,9.341,15.544,10.9,46.81
-0.087,0.922,9.338,15.55,10.9,46.81
-0.083,0.95825,9.333,15.559,10.9,46.82
-0.082,0.98675,9.328,15.57,10.9,46.81
-0.092,0.9505,9.323,15.588,10.9,46.81
-0.046,0.927125,9.318,15.607,10.9,46.85
-0.087,0.90125,9.313,15.63,10.9,46.93
-0.006,0.862375,9.308,15.655,10.9,47.03
0.05,0.890875,9.305,15.682,10.9,47.18
-0.045,0.91675,9.302,15.708,10.9,47.3
0.089,0.96075,9.301,15.734,10.9,47.43
0.332,0.922,9.302,15.762,10.9,47.58
-0.017,0.91425,9.306,15.784,10.9,47.77
-0.113,0.94525,9.312,15.809,10.9,47.95
-0.105,1.00225,9.322,15.83,10.9,48.1
-0.107,1.041125,9.336,15.848,10.9,48.22
-0.088,0.9505,9.351,15.864,10.9,48.35
-0.097,0.9245,9.369,15.877,10.9,48.51
-0.155,0.96075,9.39,15.887,10.9,48.7
0.126,0.906375,9.413,15.897,10.9,48.9
-0.076,0.909,9.439,15.903,10.9,49.07
0.032,0.877875,9.465,15.907,10.9,49.23
0.296,0.87275,9.492,15.91,10.9,49.4
0.008,0.88825,9.52,15.91,10.9,49.6
-0.138,0.88825,9.545,15.908,10.9,49.81
-0.13,0.922,9.572,15.906,10.9,49.99
-0.128,0.942625,9.597,15.903,10.9,50.08
-0.077,0.8935,9.621,15.898,10.9,50.19
-0.155,0.927125,9.643,15.892,10.9,50.36
0.13,0.984125,9.661,15.885,10.9,50.55
-0.166,0.968625,9.68,15.877,10.9,50.74
-0.063,0.9945,9.696,15.867,10.9,50.91
0.109,0.92975,9.711,15.857,10.9,51.08
0.274,0.94525,9.723,15.845,10.9,51.21
-0.1,0.955625,9.734,15.834,10.9,51.36
-0.142,0.92975,9.744,15.822,10.9,51.5
-0.127,0.91425,9.753,15.809,10.9,51.64
-0.087,0.906375,9.759,15.797,10.9,51.73
-0.119,0.854625,9.767,15.784,10.9,51.79
-0.125,0.927125,9.773,15.772,10.9,51.88
0.101,0.898625,9.778,15.76,10.9,51.95
-0.07,0.940125,9.78,15.748,10.9,51.97
0.062,0.896125,9.78,15.735,10.9,52.01
0.323,0.947875,9.78,15.723,10.9,51.99
-0.02,0.947875,9.777,15.711,10.9,51.91
-0.124,1.0255,9.775,15.701,10.9,51.84
-0.112,0.98925,9.771,15.69,10.9,51.75
-0.095,0.9945,9.766,15.678,10.9,51.57
-0.053,0.96075,9.761,15.668,10.9,51.38
-0.144,0.942625,9.756,15.658,10.9,51.21
0.164,0.934875,9.749,15.651,10.9,51.05
-0.085,0.942625,9.743,15.641,10.9,50.89
0.003,0.875375,9.736,15.632,10.9,50.7
0.249,0.903875,9.727,15.625,10.9,50.52
0.213,0.947875,9.719,15.618,10.9,50.34
-0.087,0.95825,9.71,15.609,10.9,50.14
-0.095,0.909,9.701,15.601,10.9,49.93
-0.081,0.896125,9.692,15.595,10.9,49.66
-0.065,0.94525,9.68,15.588,10.9,49.38
-0.035,0.947875,9.67,15.583,10.9,49.14
-0.125,0.991875,9.659,15.576,10.9,48.94
0.189,1.01,9.647,15.57,10.9,48.78
-0.038,1.033375,9.635,15.564,10.9,48.61
0.047,0.91425,9.623,15.558,10.9,48.45
0.326,0.92975,9.612,15.553,10.9,48.31
0.035,0.966,9.6,15.548,10.9,48.17
-0.077,0.942625,9.588,15.543,10.9,48.06
-0.074,0.9245,9.577,15.538,10.9,47.96
-0.068,0.9375,9.564,15.532,10.9,47.81
-0.062,0.909,9.552,15.527,10.9,47.65
-0.009,0.909,9.53,15.518,10.9,47.4
-0.108,0.88825,9.53,15.518,10.9,47.39
0.179,0.906375,9.518,15.515,10.9,47.27
-0.057,0.91425,9.508,15.511,10.9,47.19
0.016,0.870125,9.497,15.506,10.9,47.13
0.249,0.9505,9.486,15.501,10.9,47.06
0.255,1.007375,9.476,15.497,10.9,47.01
-0.073,1.0255,9.466,15.493,10.9,46.98
-0.086,0.940125,9.456,15.488,10.9,46.98
-0.079,0.984125,9.446,15.483,10.9,46.93
-0.088,0.909,9.436,15.478,10.9,46.87
-0.052,0.92975,9.429,15.473,10.9,46.82
-0.066,0.947875,9.419,15.471,10.9,46.81
-0.122,0.927125,9.41,15.466,10.9,46.81
0.162,0.883125,9.401,15.461,10.9,46.82
-0.053,0.9505,9.391,15.458,10.9,46.82
0.063,0.8935,9.383,15.453,10.9,46.8
0.337,0.88575,9.375,15.449,10.9,46.78
0.042,0.922,9.366,15.444,10.9,46.81
-0.097,0.903875,9.359,15.439,10.9,46.83
-0.086,0.911625,9.352,15.434,10.9,46.82
-0.083,1.004875,9.344,15.431,10.9,46.8
-0.09,1.012625,9.337,15.426,10.9,46.77
-0.023,0.971125,9.329,15.424,10.9,46.77
-0.11,0.9505,9.323,15.419,10.9,46.8
0.184,0.9945,9.316,15.414,10.9,46.82
-0.121,0.922,9.309,15.409,10.9,46.86
-0.018,0.934875,9.303,15.404,10.9,46.87
0.161,0.91675,9.296,15.401,10.9,46.9
0.308,0.88575,9.288,15.396,10.9,47.02
-0.063,0.896125,9.281,15.391,10.9,47.18
-0.101,0.883125,9.275,15.386,10.9,47.36
-0.094,0.9505,9.269,15.381,10.9,47.51
-0.102,0.96075,9.262,15.377,10.9,47.64
-0.046,0.919375,9.256,15.374,10.9,47.77
-0.139,0.922,9.251,15.369,10.9,47.92
0.158,0.940125,9.244,15.366,10.9,48.15
-0.159,0.955625,9.239,15.363,10.9,48.36
-0.041,1.041125,9.232,15.359,10.9,48.54
0.134,0.932375,9.226,15.356,10.9,48.72
0.255,0.932375,9.221,15.352,10.9,48.91
-0.098,0.947875,9.215,15.349,10.9,49.11
-0.13,0.978875,9.209,15.346,10.9,49.31
-0.119,0.919375,9.204,15.342,10.9,49.52
-0.086,0.940125,9.199,15.339,10.9,49.69
-0.118,0.85975,9.194,15.337,10.9,49.87
-0.134,0.88825,9.189,15.336,10.9,50.07
0.074,0.9245,9.184,15.333,10.9,50.27
-0.086,0.906375,9.179,15.333,10.9,50.46
0.04,0.9375,9.174,15.336,10.9,50.66
0.293,0.91675,9.169,15.339,10.9,50.83
-0.039,0.92975,9.164,15.344,10.9,50.99
-0.143,0.95825,9.161,15.35,10.9,51.14
-0.13,1.023,9.157,15.36,10.9,51.29
-0.093,1.004875,9.152,15.371,10.9,51.39
-0.108,0.95825,9.147,15.386,10.9,51.48
-0.165,0.947875,9.144,15.403,10.9,51.56
0.128,0.92975,9.141,15.423,10.9,51.59
-0.074,0.9245,9.138,15.444,10.9,51.48
0.049,0.953,9.136,15.468,10.9,51.33
0.32,0.896125,9.136,15.497,10.9,51.17
0.008,0.909,9.136,15.528,10.9,50.98
-0.11,0.8935,9.136,15.563,10.9,50.8
-0.099,0.875375,9.137,15.602,10.9,50.63
-0.081,0.96075,9.142,15.642,10.9,50.38
-0.031,0.911625,9.145,15.685,10.9,50.1
0.184,0.927125,9.152,15.729,10.9,49.86
0.187,0.942625,9.16,15.773,10.9,49.59
-0.061,1.028125,9.172,15.815,10.9,49.36
0.026,1.00225,9.184,15.856,10.9,49.21
0.269,0.94525,9.2,15.896,10.9,49.01
0.234,0.98675,9.239,15.967,10.9,48.64
-0.064,0.942625,9.24,15.971,10.9,48.62
-0.07,0.9815,9.263,16.001,10.9,48.47
-0.057,0.978875,9.287,16.03,10.9,48.29
-0.009,0.9245,9.313,16.055,10.9,48.07
-0.052,0.870125,9.339,16.079,10.9,47.89
-0.039,0.865,9.368,16.097,10.9,47.71
0.145,0.88575,9.396,16.112,10.9,47.57
-0.013,0.90125,9.426,16.121,10.9,47.45
0.124,0.919375,9.456,16.13,10.9,47.34
0.383,0.909,9.486,16.135,10.9,47.25
0.025,0.9245,9.513,16.136,10.9,47.18
-0.063,0.96075,9.542,16.135,10.9,47.13
-0.055,0.978875,9.567,16.132,10.9,47.08
-0.051,1.0385,9.592,16.127,10.9,47.03
0.004,0.966,9.613,16.12,10.9,46.98
-0.067,0.922,9.629,16.111,10.9,46.95
0.152,0.8935,9.646,16.101,10.9,46.93
-0.03,0.9375,9.663,16.09,10.9,46.93
0.007,0.898625,9.677,16.078,10.9,46.96
0.174,0.922,9.689,16.067,10.9,46.96
0.368,0.854625,9.7,16.056,10.9,46.93
-0.004,0.8805,9.707,16.044,10.9,46.94
-0.048,0.898625,9.714,16.034,10.9,46.94
-0.04,0.942625,9.718,16.024,10.9,46.93
-0.039,0.9245,9.721,16.015,10.9,46.87
0.008,0.8935,9.722,16.009,10.9,46.86
-0.043,0.9945,9.722,16.0,10.9,46.84
0.032,1.007375,9.722,15.994,10.9,46.83
0.087,1.0385,9.718,15.982,10.9,46.87
-0.004,0.9375,9.72,15.981,10.9,46.88
0.137,0.978875,9.716,15.974,10.9,46.88
0.37,0.971125,9.713,15.967,10.9,46.86
0.005,0.91425,9.709,15.961,10.9,46.9
-0.075,0.963375,9.704,15.954,10.9,46.96
-0.069,0.906375,9.699,15.946,10.9,47.04
-0.071,0.896125,9.694,15.938,10.9,47.08
-0.041,0.877875,9.689,15.932,10.9,47.21
-0.072,0.862375,9.681,15.926,10.9,47.39
-0.087,0.95825,9.675,15.921,10.9,47.59
0.119,0.940125,9.669,15.916,10.9,47.75
-0.04,0.903875,9.661,15.913,10.9,47.95
0.081,0.919375,9.652,15.913,10.9,48.14
0.329,0.976375,9.644,15.918,10.9,48.35
-0.004,1.004875,9.635,15.923,10.9,48.54
-0.11,0.97375,9.625,15.932,10.9,48.77
-0.102,0.927125,9.615,15.943,10.9,48.99
-0.093,0.932375,9.605,15.957,10.9,49.16
-0.05,0.90125,9.595,15.971,10.9,49.31
-0.146,0.940125,9.587,15.985,10.9,49.5
0.128,0.903875,9.578,15.999,10.9,49.74
-0.116,0.932375,9.568,16.013,10.9,49.94
-0.015,0.84425,9.56,16.021,10.9,50.12
0.124,0.862375,9.552,16.03,10.9,50.29
0.085,0.8935,9.544,16.038,10.9,50.44
-0.11,0.92975,9.537,16.04,10.9,50.62
-0.122,0.87275,9.532,16.043,10.9,50.8
-0.111,0.90125,9.529,16.042,10.9,50.94
-0.06,0.940125,9.522,16.038,10.9,51.18
-0.141,0.97375,9.521,16.037,10.9,51.2
0.123,1.00225,9.519,16.033,10.9,51.34
-0.141,0.955625,9.516,16.025,10.9,51.47
-0.051,0.955625,9.514,16.016,10.9,51.6
0.121,0.940125,9.511,16.006,10.9,51.71
0.279,0.96075,9.507,15.996,10.9,51.81
-0.093,0.947875,9.505,15.985,10.9,51.93
-0.132,0.94525,9.501,15.974,10.9,52.06
-0.112,0.862375,9.497,15.961,10.9,52.13
-0.059,0.8495,9.492,15.948,10.9,52.11
-0.121,0.911625,9.49,15.936,10.9,52.07
0.031,0.978875,9.485,15.921,10.9,52.03
-0.023,0.963375,9.477,15.908,10.9,51.93
-0.045,0.934875,9.472,15.893,10.9,51.82
0.116,0.898625,9.466,15.879,10.9,51.7
0.327,0.978875,9.458,15.864,10.9,51.57
-0.05,1.012625,9.452,15.85,10.9,51.42
-0.108,1.00225,9.445,15.836,10.9,51.3
-0.092,0.94525,9.439,15.825,10.9,51.15
-0.078,0.9815,9.431,15.816,10.9,50.96
-0.029,0.92975,9.424,15.811,10.9,50.77
-0.127,0.940125,9.416,15.811,10.9,50.61
0.183,0.903875,9.408,15.815,10.9,50.48
-0.063,0.898625,9.401,15.825,10.9,50.32
0.021,0.883125,9.391,15.841,10.9,50.14
0.268,0.8495,9.384,15.864,10.9,49.97
0.223,0.922,9.375,15.89,10.9,49.8
-0.068,0.909,9.369,15.918,10.9,49.67
-0.073,0.947875,9.363,15.949,10.9,49.52
-0.059,0.91675,9.358,15.98,10.9,49.31
-0.039,0.968625,9.355,16.011,10.9,49.08
-0.018,1.004875,9.353,16.041,10.9,48.87
-0.107,1.0515,9.356,16.068,10.9,48.68
0.217,0.95825,9.361,16.091,10.9,48.53
-0.016,0.942625,9.369,16.112,10.9,48.34
0.079,0.978875,9.38,16.127,10.9,48.21
0.36,0.909,9.398,16.138,10.9,48.06
0.144,0.932375,9.417,16.147,10.9,47.92
-0.056,0.95825,9.44,16.152,10.9,47.88
-0.053,0.91425,9.465,16.156,10.9,47.85
-0.045,0.85725,9.492,16.156,10.9,47.71
-0.03,0.870125,9.521,16.156,10.9,47.52
-0.001,0.911625,9.55,16.156,10.9,47.38
-0.094,0.9375,9.578,16.152,10.9,47.29
0.199,0.88825,9.605,16.15,10.9,47.22
-0.015,0.971125,9.632,16.146,10.9,47.15
0.065,0.971125,9.656,16.146,10.9,47.09
0.332,1.01525,9.68,16.147,10.9,47.04
0.179,0.984125,9.7,16.157,10.9,47.02
-0.058,0.940125,9.718,16.177,10.9,46.99
-0.057,0.95825,9.736,16.204,10.89,46.97
-0.055,0.9245,9.751,16.244,10.9,46.92
-0.054,0.94525,9.762,16.295,10.9,46.88
-0.007,0.968625,9.774,16.356,10.9,46.89
-0.107,0.883125,9.784,16.428,10.9,46.93
0.166,0.85975,9.792,16.501,10.9,46.95
-0.057,0.8935,9.802,16.582,10.9,46.97
0.018,0.96075,9.809,16.662,10.9,46.95
0.248,0.90125,9.816,16.741,10.9,46.92
0.223,0.91675,9.826,16.816,10.9,46.91
-0.08,0.91425,9.834,16.885,10.9,46.96
-0.092,0.95825,9.846,16.948,10.9,47.06
-0.084,0.940125,9.86,17.003,10.9,47.14
-0.074,0.999625,9.875,17.049,10.9,47.23
-0.05,0.95825,9.891,17.089,10.9,47.35
0.121,0.9375,9.909,17.12,10.9,47.53
0.132,0.9245,9.929,17.143,10.9,47.72
-0.073,0.862375,9.95,17.159,10.9,47.89
0.008,0.906375,9.97,17.169,10.9,48.1
0.261,0.92975,9.988,17.173,10.9,48.29
0.108,0.890875,10.027,17.162,10.9,48.69
-0.12,0.854625,10.029,17.163,10.9,48.72
-0.119,0.833875,10.047,17.151,10.9,48.92
-0.114,0.911625,10.062,17.135,10.9,49.08
-0.063,0.883125,10.076,17.116,10.9,49.23
-0.154,0.934875,10.087,17.092,10.9,49.41
0.126,0.966,10.096,17.065,10.9,49.61
-0.175,0.942625,10.104,17.034,10.9,49.81
-0.061,0.963375,10.108,17.0,10.9,49.99
0.112,0.968625,10.11,16.965,10.9,50.16
0.243,0.940125,10.109,16.927,10.9,50.34
-0.119,0.95825,10.106,16.888,10.9,50.52
-0.151,0.8805,10.103,16.848,10.9,50.71
-0.142,0.91675,10.096,16.807,10.9,50.87
-0.095,0.96075,10.09,16.767,10.9,50.97
-0.155,0.911625,10.082,16.728,10.9,51.07
-0.039,0.867625,10.072,16.688,10.9,51.21
-0.035,0.867625,10.063,16.649,10.9,51.37
-0.085,0.906375,10.052,16.611,10.9,51.49
0.063,0.932375,10.038,16.572,10.9,51.59
0.278,0.88825,10.024,16.536,10.9,51.68
-0.091,0.927125,10.011,16.5,10.9,51.78
-0.152,0.96075,9.997,16.468,10.9,51.89
-0.135,0.96075,9.982,16.434,10.9,52.01
-0.078,0.955625,9.967,16.402,10.9,52.04
-0.134,1.05925,9.95,16.373,10.9,52.01
-0.037,1.020375,9.934,16.344,10.9,51.96
0.026,0.94525,9.917,16.317,10.9,51.88
-0.057,0.88825,9.899,16.291,10.9,51.75
0.098,0.9815,9.882,16.266,10.9,51.58
0.323,0.940125,9.863,16.244,10.9,51.35
-0.047,0.906375,9.844,16.222,10.9,51.12
-0.113,0.826125,9.827,16.201,10.9,50.91
-0.099,0.88575,9.808,16.178,10.9,50.69
-0.085,0.942625,9.791,16.161,10.9,50.42
-0.031,0.87275,9.772,16.141,10.9,50.14
-0.138,0.898625,9.752,16.125,10.9,49.9
0.17,0.88825,9.735,16.107,10.9,49.67
-0.082,0.942625,9.715,16.091,10.9,49.43
0.004,0.9945,9.698,16.076,10.9,49.22
0.244,0.999625,9.678,16.063,10.9,49.03
0.223,0.934875,9.66,16.05,10.9,48.85
-0.084,0.919375,9.643,16.039,10.9,48.68
-0.093,0.963375,9.624,16.026,10.9,48.53
-0.079,0.953,9.607,16.018,10.9,48.35
-0.061,0.9815,9.591,16.01,10.9,48.15
-0.033,0.922,9.573,16.005,10.9,47.99
-0.135,0.896125,9.557,15.999,10.9,47.85
0.168,0.85725,9.542,15.995,10.9,47.76
-0.05,0.947875,9.527,15.99,10.9,47.67
0.03,0.968625,9.513,15.985,10.9,47.57
0.305,0.91675,9.5,15.983,10.9,47.46
0.146,0.963375,9.487,15.978,10.9,47.36
-0.082,0.942625,9.476,15.973,10.9,47.28
-0.081,0.968625,9.466,15.971,10.9,47.18
-0.074,0.9815,9.457,15.966,10.9,47.07
-0.066,0.96075,9.45,15.961,10.9,46.99
-0.023,0.9945,9.443,15.958,10.9,46.95
-0.122,0.919375,9.438,15.953,10.9,46.91
0.152,0.932375,9.433,15.947,10.9,46.88
-0.061,0.94525,9.429,15.941,10.9,46.9
0.01,0.940125,9.425,15.936,10.9,46.94
0.256,0.906375,9.422,15.931,10.89,46.98
0.179,0.865,9.419,15.926,10.89,47.02
-0.095,0.927125,9.418,15.921,10.88,47.11
-0.099,0.91675,9.415,15.916,10.89,47.21
-0.095,0.8805,9.413,15.911,10.88,47.29
-0.088,0.96075,9.41,15.907,10.88,47.37
-0.058,0.934875,9.408,15.905,10.88,47.5
-0.157,0.947875,9.407,15.901,10.89,47.66
0.123,1.03075,9.403,15.897,10.89,47.86
-0.088,0.991875,9.4,15.893,10.89,48.05
-0.004,1.00225,9.395,15.891,10.88,48.26
0.25,0.95825,9.393,15.886,10.88,48.45
0.095,0.9245,9.388,15.884,10.89,48.65
-0.131,0.96075,9.385,15.88,10.89,48.85
-0.131,0.91675,9.38,15.876,10.88,49.03
-0.123,0.9505,9.375,15.871,10.89,49.2
-0.07,0.90125,9.37,15.866,10.88,49.39
-0.152,0.852,9.365,15.864,10.88,49.59
0.08,0.91425,9.361,15.856,10.89,49.79
-0.133,0.90125,9.353,15.851,10.88,49.98
-0.07,0.909,9.348,15.846,10.88,50.14
0.092,0.940125,9.343,15.839,10.88,50.32
0.263,0.997125,9.338,15.832,10.88,50.47
-0.105,0.955625,9.333,15.826,10.88,50.65
-0.15,1.01775,9.326,15.819,10.88,50.84
-0.136,0.978875,9.321,15.811,10.88,50.99
-0.089,1.033375,9.314,15.804,10.88,51.09
-0.145,0.947875,9.307,15.797,10.88,51.2
-0.083,0.883125,9.301,15.79,10.89,51.33
0.011,0.95825,9.294,15.783,10.89,51.47
-0.085,0.966,9.287,15.774,10.88,51.56
0.058,0.883125,9.279,15.767,10.88,51.65
0.287,0.854625,9.274,15.759,10.88,51.74
-0.074,0.85975,9.266,15.752,10.88,51.82
-0.144,0.942625,9.259,15.743,10.88,51.94
-0.127,0.8935,9.25,15.735,10.88,52.03
-0.077,0.942625,9.242,15.728,10.88,52.06
-0.12,0.91675,9.235,15.719,10.88,52.05
-0.093,0.903875,9.227,15.713,10.88,52.04
0.077,0.984125,9.22,15.707,10.88,51.97
-0.066,0.999625,9.211,15.7,10.88,51.81
0.077,1.00225,9.204,15.693,10.88,51.68
0.318,0.96075,9.196,15.687,10.88,51.52
-0.042,0.906375,9.189,15.682,10.88,51.35
-0.124,0.903875,9.18,15.68,10.88,51.2
-0.111,0.95825,9.174,15.679,10.88,51.03
-0.098,0.940125,9.167,15.679,10.88,50.79
-0.049,0.839125,9.159,15.682,10.88,50.52
-0.151,0.82875,9.153,15.687,10.88,50.25
0.15,0.94525,9.147,15.693,10.89,50.01
-0.091,0.87275,9.139,15.703,10.88,49.77
-0.008,0.91675,9.134,15.714,10.88,49.56
0.24,0.903875,9.129,15.727,10.88,49.33
0.184,0.919375,9.126,15.739,10.88,49.1
-0.099,0.940125,9.123,15.754,10.88,48.91
-0.102,1.00225,9.121,15.769,10.88,48.71
-0.092,1.007375,9.121,15.787,10.88,48.5
-0.065,0.940125,9.122,15.803,10.88,48.29
-0.054,0.966,9.127,15.823,10.88,48.11
-0.146,0.898625,9.132,15.84,10.88,47.96
0.182,0.963375,9.138,15.858,10.88,47.85
-0.046,0.919375,9.148,15.875,10.88,47.75
0.062,0.898625,9.158,15.891,10.88,47.66
0.344,0.85975,9.17,15.906,10.88,47.55
0.088,0.8805,9.184,15.921,10.88,47.45
-0.077,0.896125,9.199,15.932,10.88,47.39
-0.068,0.826125,9.214,15.944,10.88,47.33
-0.065,0.9375,9.231,15.953,10.88,47.22
-0.035,0.934875,9.248,15.961,10.88,47.09
-0.04,0.9245,9.265,15.966,10.88,47.01
-0.115,1.023,9.282,15.97,10.88,46.96
0.192,0.978875,9.298,15.972,10.88,46.94
-0.028,0.976375,9.315,15.971,10.88,46.94
0.08,0.909,9.331,15.97,10.88,46.92
0.355,0.922,9.344,15.966,10.89,46.89
0.068,0.92975,9.358,15.961,10.88,46.88
-0.075,0.927125,9.369,15.954,10.88,46.9
-0.067,0.91675,9.381,15.948,10.88,46.88
-0.065,0.947875,9.389,15.941,10.88,46.82
-0.038,0.88825,9.398,15.932,10.88,46.79
-0.04,0.903875,9.405,15.923,10.88,46.79
-0.122,0.940125,9.41,15.913,10.88,46.77
0.18,0.942625,9.414,15.902,10.88,46.78
-0.04,0.968625,9.417,15.892,10.88,46.83
0.281,0.955625,9.419,15.881,10.88,46.91
0.338,0.940125,9.419,15.87,10.88,47.02
0.056,0.991875,9.419,15.857,10.88,47.15
-0.093,1.035875,9.417,15.847,10.88,47.32
-0.09,0.991875,9.415,15.835,10.88,47.48
-0.088,0.906375,9.409,15.815,10.88,47.7
-0.05,0.9375,9.409,15.814,10.88,47.72
-0.094,0.92975,9.403,15.803,10.88,47.87
-0.061,0.92975,9.398,15.792,10.88,48.04
0.066,0.922,9.393,15.78,10.88,48.21
-0.051,0.852,9.386,15.772,10.88,48.37
0.08,0.9245,9.38,15.762,10.88,48.56
0.309,0.90125,9.373,15.75,10.88,48.74
-0.032,0.87275,9.364,15.74,10.88,48.92
-0.116,0.919375,9.351,15.733,10.88,49.13
-0.103,0.934875,9.341,15.723,10.88,49.31
-0.093,0.906375,9.333,15.713,10.88,49.45
-0.064,1.00225,9.327,15.706,10.88,49.58
-0.158,0.9505,9.319,15.696,10.88,49.72
0.112,0.97375,9.309,15.688,10.88,49.88
-0.087,0.963375,9.299,15.68,10.88,50.01
0.001,0.9815,9.289,15.671,10.88,50.13
0.249,0.919375,9.279,15.663,10.88,50.25
0.106,0.91425,9.27,15.656,10.88,50.35
-0.116,0.922,9.259,15.647,10.88,50.49
-0.111,0.8805,9.247,15.641,10.88,50.62
-0.101,0.862375,9.237,15.633,10.88,50.69
-0.051,0.91675,9.227,15.628,10.88,50.74
-0.151,0.85725,9.215,15.621,10.88,50.81
0.134,0.91675,9.205,15.615,10.88,50.89
-0.116,0.963375,9.195,15.608,10.88,50.94
-0.015,0.932375,9.185,15.603,10.88,50.96
0.208,1.020375,9.175,15.595,10.88,50.94
0.185,0.955625,9.164,15.59,10.88,50.9
-0.105,0.999625,9.153,15.584,10.88,50.86
-0.107,0.95825,9.144,15.578,10.88,50.88
-0.1,0.9375,9.134,15.573,10.88,50.85
-0.043,0.9245,9.124,15.567,10.88,50.79
-0.131,0.934875,9.115,15.563,10.88,50.74
0.182,0.95825,9.105,15.558,10.88,50.68
-0.145,0.883125,9.098,15.553,10.88,50.61
-0.029,0.8805,9.088,15.548,10.88,50.5
0.159,0.85975,9.081,15.543,10.88,50.4
0.279,0.940125,9.072,15.538,10.88,50.25
-0.074,0.947875,9.063,15.533,10.88,50.12
-0.102,0.9375,9.056,15.528,10.88,50.0
-0.089,0.934875,9.047,15.523,10.88,49.88
-0.074,0.984125,9.04,15.518,10.88,49.69
-0.04,0.968625,9.032,15.516,10.88,49.5
-0.139,1.01,9.025,15.511,10.88,49.31
0.171,1.007375,9.017,15.507,10.88,49.13
-0.053,0.991875,9.011,15.503,10.88,48.97
0.035,0.906375,9.005,15.498,10.88,48.8
0.3,0.909,8.998,15.496,10.88,48.63
0.137,0.9375,8.993,15.491,10.88,48.48
-0.078,0.909,8.985,15.488,10.88,48.34
-0.07,0.877875,8.979,15.483,10.88,48.22
-0.065,0.883125,8.973,15.48,10.88,48.06
-0.033,0.95825,8.966,15.476,10.88,47.89
-0.036,0.896125,8.96,15.473,10.88,47.77
-0.115,0.85975,8.955,15.471,10.88,47.67
0.196,0.927125,8.95,15.467,10.88,47.57
-0.027,0.88575,8.945,15.463,10.88,47.48
0.085,0.940125,8.939,15.461,10.88,47.38
0.358,0.971125,8.933,15.456,10.88,47.28
0.079,0.999625,8.928,15.453,10.88,47.19
-0.06,0.999625,8.923,15.45,10.88,47.15
-0.052,0.940125,8.918,15.446,10.88,47.08
-0.052,0.963375,8.913,15.444,10.88,47.0
-0.012,0.968625,8.908,15.443,10.88,46.92
-0.04,0.963375,8.905,15.44,10.88,46.88
-0.072,0.955625,8.901,15.439,10.88,46.82
0.167,0.846875,8.896,15.436,10.88,46.8
-0.015,0.85725,8.891,15.435,10.88,46.81
0.11,0.932375,8.886,15.433,10.88,46.82
0.363,0.88825,8.883,15.43,10.88,46.81
0.046,0.934875,8.878,15.43,10.88,46.83
-0.061,0.903875,8.873,15.428,10.88,46.86
-0.052,0.9245,8.871,15.425,10.88,46.88
-0.058,0.999625,8.866,15.424,10.88,46.88
-0.006,0.968625,8.862,15.421,10.88,46.9
-0.074,0.971125,8.858,15.42,10.88,47.01
0.114,0.940125,8.856,15.418,10.88,47.17
-0.046,0.898625,8.852,15.418,10.88,47.36
-0.013,0.927125,8.848,15.415,10.88,47.54
0.141,0.963375,8.846,15.414,10.88,47.76
0.323,0.963375,8.843,15.413,10.88,47.95
-0.036,0.877875,8.84,15.413,10.88,48.15
-0.088,0.82875,8.837,15.413,10.88,48.37
-0.082,0.919375,8.835,15.413,10.88,48.57
-0.048,0.896125,8.831,15.415,10.88,48.72
-0.078,0.922,8.829,15.418,10.88,48.86
-0.118,0.97375,8.826,15.421,10.88,49.05
0.11,0.9505,8.824,15.425,10.88,49.25
-0.054,0.97375,8.82,15.429,10.88,49.42
0.07,0.976375,8.818,15.433,10.88,49.61
0.311,1.023,8.815,15.436,10.88,49.87
-0.01,0.997125,8.813,15.439,10.88,50.05
-0.112,0.909,8.811,15.443,10.88,50.23
-0.1,0.942625,8.808,15.445,10.88,50.39
-0.059,0.8935,8.806,15.448,10.88,50.49
-0.101,0.966,8.805,15.449,10.88,50.55
-0.1,0.903875,8.803,15.45,10.88,50.68
0.08,0.88825,8.803,15.451,10.88,50.86
-0.056,0.854625,8.8,15.451,10.88,51.01
0.079,0.932375,8.8,15.45,10.88,51.12
0.312,0.932375,8.798,15.45,10.88,51.18
-0.024,0.942625,8.798,15.448,10.88,51.19
-0.103,0.947875,8.796,15.446,10.88,51.2
-0.09,0.934875,8.795,15.444,10.88,51.21
-0.042,0.97375,8.795,15.44,10.88,51.09
-0.087,0.98675,8.794,15.438,10.88,50.99
-0.056,1.01775,8.793,15.435,10.88,50.88
0.092,0.9815,8.793,15.433,10.88,50.76
-0.035,0.9375,8.79,15.429,10.88,50.58
0.112,0.940125,8.79,15.426,10.88,50.42
0.34,0.95825,8.788,15.425,10.88,50.24
-0.013,1.007375,8.786,15.425,10.88,50.03
-0.084,0.88575,8.784,15.428,10.88,49.82
-0.073,0.831375,8.783,15.432,10.88,49.59
-0.033,0.903875,8.78,15.439,10.88,49.34
-0.042,0.890875,8.779,15.45,10.88,49.05
-0.12,0.896125,8.776,15.463,10.88,48.81
0.196,0.966,8.774,15.477,10.88,48.61
-0.027,0.91675,8.773,15.493,10.88,48.42
0.098,0.95825,8.77,15.512,10.88,48.26
0.369,0.96075,8.768,15.53,10.88,48.11
0.058,1.00225,8.768,15.548,10.88,47.96
-0.063,0.98675,8.768,15.567,10.88,47.84
-0.052,0.911625,8.768,15.583,10.88,47.74
-0.034,0.911625,8.768,15.602,10.88,47.59
0.012,0.942625,8.771,15.618,10.88,47.45
-0.098,0.932375,8.774,15.632,10.88,47.34
0.174,0.87275,8.78,15.643,10.88,47.25
-0.029,0.898625,8.786,15.656,10.88,47.18
0.048,0.88825,8.794,15.662,10.88,47.14
0.3,0.898625,8.802,15.668,10.88,47.09
0.198,0.8935,8.811,15.672,10.88,47.04
-0.059,0.940125,8.82,15.676,10.88,47.03
-0.06,0.953,8.831,15.676,10.88,47.03
-0.056,0.947875,8.842,15.679,10.88,46.98
-0.069,0.947875,8.853,15.679,10.88,46.93
-0.081,0.976375,8.864,15.679,10.88,46.91
-0.044,1.043625,8.874,15.676,10.88,46.9
0.126,0.96075,8.884,15.674,10.88,46.91
-0.015,0.932375,8.894,15.67,10.88,46.91
0.121,0.883125,8.911,15.662,10.88,46.9
0.359,0.932375,8.911,15.661,10.88,46.9
0.012,0.96075,8.918,15.656,10.88,46.88
-0.068,0.88825,8.925,15.65,10.88,46.92
-0.06,0.841625,8.931,15.643,10.88,46.93
-0.061,0.865,8.938,15.635,10.88,46.9
0.005,0.8935,8.943,15.629,10.88,46.84
-0.1,0.875375,8.945,15.621,10.88,46.85
0.186,0.9505,8.95,15.614,10.88,46.85
-0.104,0.88825,8.953,15.604,10.88,46.85
0.004,0.976375,8.957,15.595,10.88,46.88
0.205,0.896125,8.958,15.586,10.88,46.88
0.275,0.92975,8.959,15.578,10.88,46.83
-0.055,0.95825,8.96,15.569,10.88,46.85
-0.071,0.906375,8.962,15.559,10.88,46.88
-0.06,0.976375,8.962,15.551,10.88,46.87
-0.056,0.98925,8.962,15.543,10.88,46.83
-0.01,0.940125,8.96,15.536,10.88,46.8
-0.115,0.898625,8.959,15.527,10.88,46.81
0.145,0.846875,8.958,15.519,10.88,46.79
-0.05,0.833875,8.957,15.511,10.88,46.79
0.027,0.896125,8.953,15.502,10.88,46.83
0.268,0.896125,8.95,15.494,10.88,46.86
0.168,0.9505,8.947,15.487,10.88,46.85
-0.085,0.911625,8.943,15.478,10.88,46.91
-0.088,0.9375,8.939,15.471,10.88,46.99
-0.081,0.999625,8.935,15.463,10.88,47.08
-0.058,1.033375,8.93,15.457,10.88,47.18
-0.078,1.00225,8.925,15.45,10.88,47.31
-0.131,0.978875,8.921,15.444,10.88,47.46
0.119,0.909,8.916,15.437,10.88,47.62
-0.06,0.9375,8.908,15.431,10.88,47.77
0.058,0.9945,8.903,15.424,10.88,47.92
0.297,0.984125,8.897,15.419,10.88,48.09
-0.009,0.896125,8.891,15.411,10.88,48.26
-0.118,0.883125,8.883,15.406,10.88,48.46
-0.107,0.88575,8.878,15.4,10.88,48.65
-0.095,0.922,8.871,15.394,10.88,48.79
-0.075,0.903875,8.866,15.389,10.88,48.92
-0.171,0.9505,8.858,15.384,10.88,49.08
0.095,0.953,8.852,15.379,10.88,49.25
-0.097,0.953,8.844,15.374,10.88,49.41
-0.007,0.91425,8.838,15.369,10.88,49.57
0.241,0.98925,8.832,15.364,10.88,49.71
0.066,0.971125,8.827,15.362,10.88,49.73
-0.136,0.96075,8.821,15.357,10.88,49.81
-0.133,0.947875,8.815,15.352,10.88,49.99
-0.112,0.9505,8.809,15.347,10.88,50.13
-0.086,1.01,8.804,15.344,10.88,50.28
-0.182,0.9245,8.796,15.341,10.88,50.42
0.096,0.927125,8.791,15.337,10.88,50.58
-0.103,0.88825,8.786,15.332,10.88,50.74
-0.008,0.875375,8.779,15.329,10.88,50.89
0.247,0.911625,8.774,15.326,10.88,51.06
0.062,0.953,8.769,15.322,10.88,51.2
-0.142,0.9505,8.762,15.319,10.88,51.35
-0.138,0.9245,8.757,15.316,10.88,51.5
-0.107,0.94525,8.753,15.313,10.88,51.61
-0.1,0.9945,8.746,15.311,10.88,51.7
-0.192,0.999625,8.742,15.308,10.88,51.82
0.125,0.968625,8.738,15.307,10.88,51.94
-0.099,0.919375,8.734,15.303,10.88,52.07
0.011,0.96075,8.729,15.302,10.88,52.18
-0.008,0.97375,8.724,15.299,10.88,52.35
-0.082,0.95825,8.719,15.298,10.88,52.48
-0.154,0.865,8.714,15.296,10.88,52.57
-0.149,0.805375,8.712,15.296,10.88,52.69
-0.121,0.90125,8.707,15.296,10.88,52.76
-0.103,0.883125,8.699,15.302,10.88,52.94
-0.2,0.8935,8.698,15.301,10.88,52.95
0.132,0.968625,8.694,15.304,10.88,53.07
-0.11,0.927125,8.691,15.307,10.88,53.22
0.001,0.963375,8.687,15.312,10.88,53.37
0.289,0.9375,8.684,15.314,10.88,53.52
0.009,1.01775,8.681,15.319,10.88,53.65
-0.162,0.991875,8.677,15.324,10.88,53.73
-0.154,0.96075,8.674,15.327,10.88,53.83
-0.128,0.9505,8.672,15.329,10.88,53.88
-0.072,0.90125,8.671,15.334,10.88,53.9
-0.177,0.9505,8.668,15.339,10.88,53.96
0.147,0.91425,8.668,15.342,10.88,53.98
-0.102,0.854625,8.668,15.344,10.88,53.86
-0.005,0.865,8.668,15.347,10.88,53.73
0.258,0.875375,8.668,15.351,10.88,53.56
0.179,0.877875,8.668,15.354,10.88,53.3
-0.1,0.934875,8.671,15.359,10.88,52.99
-0.1,0.942625,8.671,15.366,10.88,52.68
-0.084,0.883125,8.673,15.375,10.88,52.37
-0.059,0.9815,8.673,15.387,10.88,52.05
-0.037,0.96075,8.676,15.403,10.88,51.72
-0.126,1.048875,8.676,15.419,10.88,51.37
0.219,0.9375,8.678,15.438,10.88,51.03
0.063,0.927125,8.681,15.457,10.88,50.7
0.125,0.947875,8.682,15.477,10.88,50.39
0.361,0.94525,8.683,15.5,10.88,50.0
0.124,0.919375,8.686,15.521,10.88,49.69
-0.055,0.88575,8.689,15.544,10.88,49.47
-0.045,0.818375,8.697,15.583,10.88,48.99
-0.035,0.862375,8.697,15.586,10.88,48.95
-0.035,0.877875,8.702,15.604,10.88,48.69
0.031,0.8805,8.707,15.623,10.88,48.48
-0.069,0.98675,8.714,15.637,10.88,48.35
0.235,0.877875,8.722,15.65,10.88,48.25
-0.028,0.91675,8.729,15.661,10.88,48.09
0.054,0.984125,8.737,15.67,10.88,47.91
0.277,1.01775,8.745,15.678,10.88,47.73
0.302,1.00225,8.755,15.685,10.88,47.58
-0.028,0.940125,8.764,15.689,10.88,47.45
-0.041,0.999625,8.772,15.692,10.88,47.35
-0.034,0.934875,8.782,15.694,10.88,47.23
-0.043,0.978875,8.79,15.698,10.88,47.11
-0.023,0.947875,8.8,15.706,10.88,47.03
-0.003,0.88825,8.807,15.716,10.88,46.98
-0.091,0.932375,8.816,15.729,10.88,46.95
0.218,0.940125,8.824,15.749,10.88,46.93
-0.006,0.911625,8.831,15.775,10.88,46.92
0.091,0.91425,8.836,15.806,10.88,46.87
0.362,1.0385,8.843,15.845,10.88,46.85
0.134,0.95825,8.848,15.889,10.88,46.84
-0.053,0.934875,8.853,15.937,10.88,46.83
-0.049,0.919375,8.858,15.985,10.88,46.82
-0.046,1.0385,8.863,16.038,10.88,46.79
-0.055,0.98925,8.868,16.09,10.88,46.76
0.01,1.00225,8.873,16.143,10.88,46.76
0.209,0.971125,8.881,16.193,10.88,46.76
0.169,0.953,8.889,16.242,10.88,46.79
-0.082,0.955625,8.899,16.285,10.88,46.82
0.018,0.896125,8.911,16.326,10.88,46.82
0.217,0.85975,8.923,16.365,10.88,46.79
0.281,0.8935,8.949,16.423,10.88,46.8
-0.054,0.862375,8.95,16.425,10.88,46.8
-0.07,0.883125,8.965,16.452,10.88,46.85
-0.06,0.9375,8.983,16.472,10.88,46.83
-0.073,0.9505,8.999,16.49,10.88,46.8
-0.026,0.909,9.015,16.507,10.88,46.77
-0.071,0.953,9.032,16.518,10.88,46.76
-0.028,0.999625,9.05,16.525,10.88,46.75
0.069,0.997125,9.065,16.529,10.88,46.78
-0.037,0.919375,9.081,16.529,10.88,46.85
0.098,0.95825,9.097,16.525,10.88,46.96
0.326,0.953,9.11,16.518,10.88,47.07
-0.026,0.976375,9.124,16.509,10.88,47.24
-0.113,0.91675,9.137,16.498,10.88,47.44
-0.106,0.867625,9.148,16.485,10.88,47.62
-0.108,0.870125,9.158,16.468,10.88,47.76
-0.062,0.87275,9.168,16.452,10.88,47.94
-0.166,0.92975,9.177,16.432,10.88,48.15
0.094,0.90125,9.183,16.412,10.88,48.37
-0.137,0.940125,9.189,16.39,10.88,48.58
-0.045,0.966,9.194,16.367,10.88,48.8
0.173,0.8935,9.196,16.343,10.88,49.03
0.14,0.968625,9.199,16.321,10.88,49.21
-0.15,1.01525,9.2,16.299,10.88,49.43
-0.156,0.971125,9.2,16.275,10.88,49.64
-0.146,0.940125,9.2,16.251,10.88,49.78
-0.095,0.98925,9.199,16.229,10.88,49.89
-0.198,0.92975,9.198,16.208,10.88,50.0
0.082,0.940125,9.194,16.186,10.88,50.13
-0.167,0.875375,9.19,16.164,10.88,50.25
-0.06,0.896125,9.186,16.144,10.88,50.34
0.161,0.8365,9.182,16.121,10.88,50.39
0.142,0.875375,9.177,16.101,10.88,50.34
-0.154,0.9245,9.169,16.081,10.88,50.3
-0.158,0.940125,9.163,16.059,10.88,50.37
-0.14,0.94525,9.157,16.04,10.88,50.44
-0.095,0.9245,9.148,16.022,10.88,50.47
-0.196,0.947875,9.14,16.004,10.88,50.5
0.077,1.03075,9.132,15.985,10.88,50.53
-0.147,0.966,9.123,15.971,10.88,50.57
-0.049,0.934875,9.113,15.956,10.88,50.65
0.191,0.953,9.103,15.942,10.88,50.76
0.114,0.919375,9.093,15.931,10.88,50.81
-0.154,0.978875,9.083,15.923,10.88,50.84
-0.156,0.896125,9.073,15.92,10.88,50.85
-0.128,0.818375,9.063,15.923,10.88,50.84
-0.088,0.839125,9.052,15.929,10.88,50.82
-0.187,0.909,9.042,15.945,10.88,50.85
0.111,0.877875,9.031,15.965,10.88,50.88
-0.105,0.942625,9.021,15.988,10.88,50.84
-0.005,0.984125,9.011,16.016,10.88,50.77
0.263,0.947875,9.001,16.048,10.88,50.67
0.082,0.9375,8.993,16.078,10.88,50.56
-0.125,0.903875,8.985,16.108,10.88,50.41
-0.119,0.97375,8.978,16.137,10.88,50.23
-0.098,1.007375,8.975,16.162,10.88,49.98
-0.038,0.9375,8.972,16.183,10.88,49.72
-0.143,0.963375,8.972,16.203,10.88,49.47
0.164,0.947875,8.974,16.219,10.88,49.24
-0.095,0.95825,8.978,16.23,10.88,49.04
0.002,0.867625,8.985,16.24,10.88,48.85
0.243,0.88575,8.993,16.246,10.88,48.68
0.217,0.85975,9.004,16.25,10.88,48.52
-0.084,0.870125,9.013,16.253,10.88,48.38
-0.088,0.88825,9.026,16.251,10.88,48.27
-0.076,0.947875,9.038,16.246,10.88,48.15
-0.028,0.92975,9.052,16.242,10.88,47.97
-0.065,0.88825,9.065,16.234,10.88,47.78
-0.076,0.9505,9.077,16.225,10.88,47.63
0.137,0.997125,9.088,16.215,10.88,47.52
-0.033,1.08,9.098,16.203,10.88,47.41
0.105,0.9945,9.108,16.189,10.88,47.3
0.356,0.963375,9.117,16.174,10.88,47.18
-0.005,0.96075,9.124,16.157,10.88,47.08
-0.089,0.9945,9.132,16.142,10.88,47.05
-0.082,0.922,9.137,16.126,10.88,47.01
-0.08,0.867625,9.142,16.109,10.88,46.93
-0.022,0.8495,9.143,16.092,10.88,46.84
-0.094,0.932375,9.146,16.076,10.88,46.78
0.105,0.88825,9.147,16.06,10.88,46.75
-0.051,0.90125,9.147,16.043,10.88,46.73
-0.027,0.927125,9.146,16.027,10.88,46.75
0.137,0.942625,9.144,16.01,10.88,46.72
0.317,0.947875,9.142,15.995,10.88,46.69
-0.053,0.96075,9.139,15.98,10.88,46.69
-0.097,1.05925,9.136,15.968,10.88,46.72
-0.086,0.984125,9.132,15.953,10.88,46.71
-0.089,0.9245,9.127,15.939,10.88,46.68
-0.05,0.966,9.122,15.927,10.88,46.68
-0.081,0.9505,9.117,15.917,10.88,46.7
-0.089,0.927125,9.112,15.904,10.88,46.73
0.114,0.934875,9.104,15.894,10.88,46.74
-0.048,0.867625,9.099,15.885,10.88,46.77
0.082,0.877875,9.092,15.875,10.88,46.79
0.328,0.896125,9.085,15.865,10.88,46.82
-0.018,0.94525,9.078,15.857,10.88,46.9
-0.109,0.922,9.071,15.849,10.88,46.98
-0.1,0.91425,9.065,15.841,10.88,47.06
-0.103,0.942625,9.057,15.835,10.88,47.12
-0.088,0.911625,9.051,15.829,10.88,47.21
-0.08,1.01525,9.045,15.821,10.88,47.38
-0.164,1.007375,9.038,15.816,10.88,47.66
0.126,0.966,9.032,15.811,10.88,47.98
-0.083,0.947875,9.027,15.806,10.88,48.17
0.018,0.96075,9.022,15.803,10.88,48.34
0.277,0.955625,9.017,15.799,10.88,48.51
0.012,0.903875,9.012,15.796,10.88,48.69
-0.142,0.8935,9.008,15.792,10.88,48.91
-0.133,0.852,9.003,15.791,10.88,49.09
-0.134,0.911625,8.998,15.787,10.88,49.22
-0.079,0.9245,8.995,15.783,10.88,49.36
-0.173,0.9375,8.99,15.781,10.88,49.55
0.127,0.934875,8.988,15.779,10.88,49.74
-0.198,0.96075,8.984,15.774,10.88,49.91
-0.067,0.966,8.983,15.772,10.88,50.1
0.125,0.978875,8.98,15.767,10.88,50.28
0.206,0.9945,8.978,15.762,10.88,50.44
-0.133,0.934875,8.977,15.757,10.88,50.66
-0.154,0.940125,8.974,15.752,10.88,50.91
-0.141,0.932375,8.974,15.747,10.88,51.05
-0.096,0.91425,8.972,15.742,10.88,51.14
-0.15,0.92975,8.97,15.737,10.88,51.24
-0.038,0.95825,8.969,15.732,10.88,51.36
-0.025,0.854625,8.968,15.727,10.88,51.48
-0.077,0.8365,8.967,15.722,10.88,51.56
0.08,0.854625,8.964,15.717,10.88,51.66
0.287,0.8805,8.962,15.711,10.88,51.75
-0.1,0.85975,8.959,15.705,10.88,51.82
-0.134,0.846875,8.958,15.7,10.88,51.85
-0.12,0.896125,8.954,15.695,10.88,51.86
-0.09,0.94525,8.95,15.69,10.88,51.79
-0.09,0.984125,8.947,15.685,10.88,51.73
-0.166,1.004875,8.94,15.68,10.88,51.63
0.156,0.9945,8.939,15.68,10.88,51.62
-0.069,0.98675,8.935,15.682,10.88,51.54
0.049,0.91425,8.93,15.688,10.87,51.49
0.326,0.91425,8.925,15.702,10.88,51.41
0.026,0.909,8.921,15.724,10.88,51.32
-0.107,0.911625,8.916,15.754,10.88,51.22
-0.096,0.85725,8.911,15.794,10.88,51.15
-0.087,0.852,8.906,15.844,10.87,50.97
-0.023,0.903875,8.901,15.901,10.88,50.76
-0.122,0.919375,8.897,15.966,10.87,50.55
0.207,0.9505,8.895,16.031,10.87,50.3
-0.126,0.911625,8.895,16.098,10.87,50.03
-0.004,0.9505,8.895,16.167,10.88,49.77
0.206,0.97375,8.898,16.234,10.87,49.52
0.274,1.01525,8.907,16.299,10.87,49.28
-0.065,0.968625,8.918,16.361,10.87,49.1
-0.081,0.95825,8.935,16.415,10.88,48.95
-0.065,0.98675,8.957,16.466,10.87,48.76
-0.057,0.942625,8.981,16.513,10.87,48.54
0.005,0.999625,9.012,16.558,10.87,48.37
-0.095,0.896125,9.047,16.602,10.87,48.22
0.203,0.839125,9.086,16.643,10.88,48.11
-0.04,0.852,9.127,16.683,10.88,48.04
0.044,0.906375,9.169,16.723,10.87,47.96
0.282,0.922,9.214,16.76,10.87,47.85
0.264,0.927125,9.259,16.796,10.87,47.7
-0.045,0.947875,9.303,16.828,10.87,47.59
-0.051,0.903875,9.348,16.858,10.87,47.49
-0.043,0.8805,9.389,16.882,10.87,47.35
-0.05,0.966,9.432,16.902,10.88,47.18
0.019,1.01525,9.471,16.918,10.87,47.08
-0.072,0.919375,9.51,16.928,10.88,47.01
0.219,0.927125,9.544,16.933,10.87,46.98
-0.083,0.9245,9.578,16.933,10.87,46.93
0.018,0.94525,9.607,16.928,10.87,46.89
0.212,0.978875,9.634,16.916,10.88,46.85
0.328,0.865,9.658,16.904,10.87,46.82
-0.032,0.870125,9.68,16.887,10.88,46.81
-0.057,0.8365,9.7,16.867,10.87,46.76
-0.049,0.867625,9.717,16.845,10.87,46.71
-0.056,0.922,9.731,16.823,10.87,46.69
0.0,0.934875,9.744,16.798,10.87,46.66
-0.061,0.940125,9.757,16.774,10.87,46.64
0.086,0.898625,9.764,16.746,10.88,46.66
0.01,0.92975,9.772,16.717,10.87,46.73
-0.009,0.942625,9.777,16.689,10.87,46.77
0.148,0.9375,9.78,16.66,10.87,46.8
0.345,0.966,9.78,16.63,10.87,46.77
-0.023,0.942625,9.78,16.599,10.87,46.8
-0.081,0.942625,9.776,16.571,10.87,46.83
-0.075,0.953,9.771,16.541,10.87,46.91
-0.082,0.90125,9.763,16.513,10.87,46.96
-0.03,0.883125,9.754,16.485,10.87,47.02
-0.101,0.854625,9.744,16.458,10.87,47.11
0.112,0.846875,9.733,16.433,10.87,47.23
-0.085,0.9245,9.72,16.406,10.87,47.39
-0.034,0.92975,9.705,16.382,10.87,47.55
0.129,0.953,9.675,16.337,10.87,47.95
0.294,0.927125,9.674,16.334,10.87,47.97
-0.072,0.896125,9.655,16.314,10.87,48.15
-0.115,1.01525,9.636,16.293,10.87,48.36
-0.105,1.03075,9.617,16.273,10.87,48.55
-0.096,0.971125,9.596,16.255,10.87,48.71
-0.072,0.984125,9.576,16.239,10.87,48.85
-0.169,0.947875,9.553,16.222,10.87,49.02
0.105,0.963375,9.532,16.207,10.88,49.22
-0.091,0.9245,9.51,16.192,10.88,49.41
0.0,0.8805,9.487,16.177,10.87,49.58
0.257,0.883125,9.465,16.164,10.88,49.72
0.062,0.846875,9.444,16.152,10.87,49.88
-0.137,0.867625,9.422,16.14,10.87,50.05
-0.135,0.909,9.4,16.127,10.87,50.23
-0.118,0.934875,9.379,16.116,10.87,50.34
-0.079,0.96075,9.359,16.106,10.87,50.45
-0.174,0.91675,9.34,16.1,10.87,50.57
0.097,0.976375,9.32,16.092,10.87,50.71
-0.112,1.01525,9.3,16.083,10.87,50.83
-0.018,0.976375,9.28,16.077,10.87,50.94
0.232,0.96075,9.263,16.072,10.88,51.04
0.114,1.054,9.244,16.068,10.87,51.16
-0.137,0.9375,9.226,16.063,10.87,51.28
-0.138,0.898625,9.209,16.058,10.87,51.41
-0.115,0.8935,9.193,16.053,10.87,51.52
-0.081,0.896125,9.177,16.048,10.87,51.58
-0.181,0.841625,9.162,16.044,10.87,51.65
0.109,0.8495,9.147,16.04,10.87,51.75
-0.105,0.896125,9.133,16.035,10.87,51.83
-0.008,0.919375,9.119,16.032,10.87,51.93
0.263,0.94525,9.107,16.03,10.87,52.02
0.095,0.9245,9.094,16.03,10.87,52.07
-0.123,0.922,9.083,16.032,10.87,52.09
-0.121,0.953,9.071,16.034,10.87,52.17
-0.101,1.04625,9.061,16.04,10.87,52.18
-0.047,0.942625,9.05,16.05,10.87,52.18
-0.149,0.96075,9.04,16.064,10.87,52.25
0.163,0.98675,9.031,16.077,10.87,52.31
-0.101,0.92975,9.022,16.095,10.87,52.41
0.001,0.934875,9.015,16.114,10.87,52.45
0.252,0.906375,9.008,16.131,10.87,52.47
0.191,0.90125,9.003,16.149,10.87,52.45
-0.094,0.831375,8.999,16.164,10.87,52.4
-0.099,0.91675,8.997,16.179,10.87,52.31
-0.082,0.971125,8.997,16.192,10.87,52.13
-0.036,0.968625,8.999,16.203,10.87,51.95
-0.07,0.934875,9.003,16.213,10.87,51.77
-0.055,0.91675,9.01,16.222,10.87,51.59
0.153,0.971125,9.018,16.226,10.87,51.38
-0.016,1.012625,9.028,16.228,10.87,51.12
0.133,1.007375,9.041,16.228,10.87,50.87
0.381,0.966,9.055,16.228,10.87,50.67
0.011,0.94525,9.067,16.224,10.87,50.45
-0.068,0.953,9.082,16.222,10.87,50.2
-0.055,0.947875,9.096,16.217,10.87,49.96
-0.052,0.919375,9.109,16.209,10.87,49.68
-0.005,0.9245,9.122,16.203,10.87,49.42
-0.042,0.826125,9.133,16.195,10.87,49.23
-0.016,0.839125,9.143,16.188,10.87,49.06
0.178,0.94525,9.153,16.178,10.87,48.89
0.009,0.94525,9.16,16.168,10.87,48.73
0.153,0.9375,9.168,16.158,10.87,48.61
0.402,0.862375,9.174,16.148,10.87,48.54
0.032,0.898625,9.179,16.138,10.87,48.49
-0.047,1.020375,9.182,16.126,10.87,48.41
-0.037,0.942625,9.184,16.116,10.87,48.26
-0.036,0.934875,9.185,16.106,10.87,48.08
-0.028,0.991875,9.188,16.096,10.87,47.94
0.023,0.976375,9.188,16.088,10.87,47.83
-0.072,0.919375,9.188,16.082,10.87,47.76
0.22,0.947875,9.185,16.077,10.87,47.68
-0.002,0.883125,9.184,16.075,10.87,47.58
0.069,0.88575,9.182,16.074,10.87,47.48
0.319,0.85975,9.178,16.076,10.87,47.39
0.239,0.91425,9.174,16.08,10.87,47.33
-0.041,0.997125,9.169,16.085,10.87,47.29
-0.044,0.978875,9.164,16.091,10.87,47.21
-0.038,0.922,9.159,16.098,10.87,47.1
-0.048,0.96075,9.154,16.107,10.87,46.97
-0.007,0.942625,9.149,16.116,10.87,46.9
-0.029,1.01,9.144,16.126,10.87,46.86
-0.073,0.991875,9.139,16.135,10.87,46.85
0.194,1.007375,9.134,16.142,10.87,46.83
-0.008,0.9375,9.131,16.15,10.87,46.82
0.113,0.963375,9.127,16.155,10.87,46.81
0.377,0.940125,9.123,16.159,10.87,46.79
0.042,0.940125,9.119,16.163,10.87,46.8
-0.072,0.927125,9.117,16.166,10.87,46.82
-0.067,0.805375,9.113,16.166,10.87,46.82
-0.067,0.818375,9.109,16.164,10.87,46.79
-0.077,0.91675,9.107,16.163,10.87,46.74
-0.006,0.940125,9.103,16.159,10.87,46.72
-0.092,0.94525,9.099,16.155,10.87,46.73
0.201,0.919375,9.096,16.15,10.87,46.76
-0.095,0.966,9.092,16.145,10.87,46.78
0.006,0.97375,9.087,16.137,10.87,46.76
