ECG,EMG,foot GSR,hand GSR,HR,marker,RESP
-0.055,0.292625,7.3,6.527,70.0,11.59,51.02
0.007,0.321125,7.297,6.522,70.0,11.57,51.01
-0.068,0.349625,7.295,6.518,70.0,11.57,50.99
0.046,0.246,7.291,6.514,70.0,11.57,50.94
0.231,0.362625,7.287,6.511,70.0,11.57,50.9
0.046,0.357375,7.284,6.509,70.0,11.57,50.88
0.13,0.227875,7.28,6.504,70.0,11.57,50.85
0.338,0.163125,7.277,6.499,70.0,11.57,50.81
0.335,0.357375,7.275,6.494,70.0,11.57,50.77
0.015,0.31075,7.27,6.489,70.0,11.57,50.71
-0.009,0.401375,7.267,6.486,91.0,11.57,50.66
0.003,0.3445,7.264,6.482,91.0,11.57,50.56
-0.016,0.277125,7.261,6.481,91.0,11.57,50.44
-0.027,0.32375,7.259,6.479,91.0,11.57,50.41
-0.047,0.316,7.255,6.477,91.0,11.57,50.4
-0.046,0.292625,7.254,6.474,91.0,11.57,50.39
-0.096,0.248625,7.251,6.476,91.0,11.57,50.36
-0.126,0.246,7.249,6.476,91.0,11.57,50.36
0.236,0.284875,7.249,6.474,91.0,11.57,50.41
-0.119,0.36,7.247,6.473,91.0,11.57,50.52
-0.054,0.308125,7.246,6.471,91.0,11.57,50.64
0.028,0.227875,7.246,6.472,63.0,11.57,50.89
0.225,0.025875,7.246,6.473,63.0,11.57,50.91
0.072,0.398875,7.246,6.473,63.0,11.57,51.02
-0.185,0.3185,7.246,6.474,63.0,11.57,51.14
-0.197,0.25125,7.249,6.476,63.0,11.57,51.23
-0.194,0.271875,7.249,6.477,63.0,11.57,51.27
-0.215,0.168375,7.251,6.478,63.0,11.57,51.38
-0.21,0.168375,7.251,6.478,63.0,11.57,51.51
-0.144,0.031125,7.252,6.478,63.0,11.57,51.67
-0.226,0.2745,7.254,6.474,63.0,11.57,51.88
-0.216,0.163125,7.254,6.464,63.0,11.57,51.99
0.186,0.29525,7.254,6.454,63.0,11.57,52.06
-0.12,0.341875,7.255,6.446,63.0,11.57,52.08
-0.026,0.277125,7.255,6.435,63.0,11.57,52.02
0.142,0.196875,7.254,6.434,69.0,11.57,51.98
0.208,0.3185,7.254,6.426,69.0,11.57,51.92
-0.109,0.36775,7.254,6.42,69.0,11.57,51.83
-0.138,0.328875,7.254,6.412,69.0,11.57,51.77
-0.118,0.32375,7.254,6.41,69.0,11.57,51.7
-0.116,0.303,7.251,6.406,69.0,11.56,51.59
-0.109,0.28225,7.251,6.402,69.0,11.56,51.51
-0.099,0.347,7.249,6.4,69.0,11.56,51.44
-0.033,0.29,7.247,6.41,69.0,11.56,51.38
-0.099,0.38325,7.246,6.42,69.0,11.56,51.32
-0.07,0.365125,7.245,6.417,69.0,11.56,51.24
0.272,0.303,7.244,6.407,69.0,11.56,51.15
0.005,0.35225,7.24,6.396,69.0,11.57,51.05
0.096,0.256375,7.239,6.377,69.0,11.57,50.96
0.277,0.119125,7.235,6.365,69.0,11.57,50.86
0.344,0.308125,7.233,6.358,69.0,11.57,50.82
0.009,0.370375,7.23,6.355,69.0,11.56,50.75
-0.033,0.328875,7.228,6.361,66.0,11.56,50.75
-0.026,0.3885,7.225,6.365,66.0,11.56,50.7
-0.034,0.170875,7.222,6.372,66.0,11.56,50.56
-0.047,0.163125,7.218,6.377,66.0,11.56,50.52
-0.06,0.22525,7.215,6.381,66.0,11.56,50.5
0.001,0.297875,7.212,6.393,66.0,11.56,50.48
-0.05,0.347,7.208,6.401,66.0,11.55,50.47
-0.069,0.398875,7.202,6.424,66.0,11.55,50.46
0.296,0.29525,7.203,6.425,66.0,11.55,50.46
0.001,0.38325,7.2,6.436,66.0,11.55,50.45
0.176,0.041375,7.199,6.451,66.0,11.55,50.46
0.253,0.025875,7.199,6.469,66.0,11.55,50.46
0.374,0.35225,7.199,6.477,66.0,11.55,50.45
0.027,0.357375,7.2,6.479,66.0,11.55,50.45
-0.098,0.308125,7.203,6.475,65.0,11.55,50.43
-0.104,0.313375,7.214,6.477,65.0,11.55,50.5
-0.123,0.227875,7.215,6.478,65.0,11.55,50.51
-0.147,0.163125,7.22,6.499,65.0,11.55,50.63
-0.153,0.160625,7.229,6.52,65.0,11.55,50.77
-0.147,0.0285,7.239,6.545,65.0,11.55,50.88
-0.13,0.248625,7.248,6.564,65.0,11.55,51.02
-0.195,0.23825,7.258,6.569,65.0,11.55,51.15
0.214,0.204625,7.268,6.574,65.0,11.55,51.26
-0.184,0.334125,7.281,6.577,65.0,11.55,51.36
-0.067,0.025875,7.291,6.591,65.0,11.55,51.56
0.042,0.0285,7.301,6.606,64.0,11.55,51.81
0.238,0.189,7.311,6.623,64.0,11.55,51.99
0.048,0.316,7.321,6.638,64.0,11.55,52.1
-0.153,0.36775,7.327,6.649,64.0,11.55,52.18
-0.132,0.119125,7.335,6.659,64.0,11.55,52.26
-0.139,0.1165,7.342,6.672,64.0,11.55,52.25
-0.141,0.362625,7.349,6.679,64.0,11.55,52.24
-0.149,0.36,7.354,6.689,64.0,11.55,52.2
-0.073,0.313375,7.359,6.692,64.0,11.55,52.15
-0.156,0.308125,7.367,6.696,64.0,11.55,52.05
-0.137,0.300375,7.368,6.697,64.0,11.55,52.04
0.234,0.32625,7.371,6.703,64.0,11.55,51.98
-0.041,0.277125,7.373,6.708,64.0,11.55,51.96
0.047,0.204625,7.376,6.707,64.0,11.55,51.95
0.229,0.35225,7.376,6.705,64.0,11.55,51.9
0.203,0.36,7.378,6.701,64.0,11.55,51.86
-0.043,0.362625,7.378,6.697,64.0,11.55,51.83
-0.071,0.38075,7.378,6.701,69.0,11.55,51.79
-0.058,0.365125,7.378,6.706,69.0,11.55,51.68
-0.067,0.36775,7.374,6.706,69.0,11.55,51.44
-0.067,0.277125,7.372,6.705,69.0,11.55,51.43
-0.076,0.38325,7.369,6.705,69.0,11.55,51.35
-0.007,0.29,7.366,6.703,69.0,11.55,51.27
-0.08,0.32375,7.362,6.702,69.0,11.55,51.21
-0.096,0.39625,7.357,6.7,69.0,11.55,51.13
0.276,0.303,7.353,6.697,69.0,11.55,51.04
-0.005,0.372875,7.348,6.695,69.0,11.56,50.96
0.067,0.2745,7.342,6.693,69.0,11.55,50.91
0.24,0.126875,7.337,6.687,69.0,11.55,50.88
0.349,0.347,7.331,6.679,69.0,11.55,50.82
0.013,0.36,7.325,6.673,69.0,11.55,50.73
-0.065,0.391,7.318,6.671,65.0,11.57,50.7
-0.054,0.29,7.312,6.672,65.0,11.6,50.59
-0.06,0.35225,7.307,6.669,65.0,11.6,50.42
-0.086,0.2875,7.3,6.659,65.0,11.6,50.36
-0.081,0.220125,7.295,6.65,65.0,11.61,50.32
-0.081,0.202,7.291,6.633,65.0,11.61,50.29
-0.093,0.277125,7.287,6.632,65.0,11.62,50.26
-0.11,0.2745,7.286,6.647,65.0,11.62,50.21
0.08,0.25125,7.289,6.679,65.0,11.62,50.17
0.06,0.35475,7.292,6.682,65.0,11.62,50.16
-0.038,0.370375,7.3,6.683,65.0,11.62,50.16
0.053,0.25375,7.324,6.711,65.0,11.62,50.18
0.234,0.227875,7.325,6.713,65.0,11.62,50.19
0.164,0.32375,7.341,6.733,65.0,11.62,50.26
-0.143,0.313375,7.361,6.756,63.0,11.62,50.38
-0.166,0.2435,7.384,6.792,63.0,11.62,50.52
-0.17,0.2305,7.41,6.822,63.0,11.64,50.61
-0.183,0.308125,7.439,6.846,63.0,11.62,50.71
-0.19,0.1735,7.469,6.864,63.0,11.62,50.84
-0.179,0.227875,7.5,6.882,63.0,11.62,50.99
-0.159,0.328875,7.531,6.904,63.0,11.62,51.14
-0.223,0.168375,7.563,6.937,63.0,11.62,51.27
0.202,0.2305,7.598,6.985,63.0,11.64,51.4
-0.212,0.305625,7.63,7.031,63.0,11.62,51.57
-0.082,0.20975,7.663,7.069,63.0,11.62,51.76
0.02,0.256375,7.693,7.087,67.0,11.62,51.9
0.221,0.12175,7.726,7.113,67.0,11.62,52.05
0.048,0.370375,7.755,7.151,67.0,11.62,52.2
-0.148,0.303,7.78,7.173,67.0,11.64,52.28
-0.155,0.204625,7.804,7.203,67.0,11.64,52.28
-0.156,0.1165,7.828,7.234,67.0,11.64,52.19
-0.159,0.277125,7.849,7.263,67.0,11.62,52.12
-0.153,0.370375,7.869,7.291,67.0,11.62,52.08
-0.163,0.29,7.888,7.315,67.0,11.64,52.0
-0.172,0.29,7.904,7.332,67.0,11.64,51.91
-0.154,0.341875,7.917,7.342,67.0,11.64,51.81
0.218,0.33925,7.93,7.343,67.0,11.62,51.72
-0.053,0.32375,7.937,7.345,67.0,11.62,51.64
0.03,0.316,7.948,7.367,67.0,11.64,51.48
0.199,0.199375,7.948,7.369,67.0,11.64,51.46
0.273,0.284875,7.95,7.374,67.0,11.64,51.45
-0.056,0.357375,7.948,7.382,67.0,11.64,51.41
-0.078,0.3445,7.948,7.387,69.0,11.62,51.36
-0.061,0.31075,7.944,7.391,69.0,11.62,51.24
-0.083,0.25125,7.939,7.399,69.0,11.62,51.1
-0.078,0.256375,7.931,7.409,69.0,11.62,51.01
-0.079,0.204625,7.922,7.417,69.0,11.62,50.95
-0.007,0.170875,7.912,7.424,69.0,11.62,50.9
-0.079,0.248625,7.9,7.431,69.0,11.62,50.86
-0.085,0.378125,7.889,7.434,69.0,11.62,50.81
0.271,0.303,7.876,7.429,69.0,11.62,50.76
0.005,0.269375,7.861,7.425,69.0,11.62,50.72
0.083,0.349625,7.849,7.422,69.0,11.62,50.7
0.258,0.12175,7.834,7.421,69.0,11.62,50.65
0.35,0.22275,7.819,7.417,69.0,11.62,50.64
0.004,0.38075,7.804,7.409,69.0,11.62,50.61
-0.045,0.308125,7.792,7.397,65.0,11.64,50.58
-0.049,0.300375,7.777,7.382,65.0,11.64,50.5
-0.058,0.300375,7.762,7.368,65.0,11.64,50.41
-0.07,0.233125,7.75,7.354,65.0,11.64,50.38
-0.074,0.328875,7.735,7.339,65.0,11.64,50.36
-0.045,0.313375,7.721,7.325,65.0,11.64,50.36
-0.015,0.256375,7.695,7.296,65.0,11.62,50.34
-0.084,0.29525,7.693,7.295,65.0,11.62,50.34
0.149,0.269375,7.681,7.281,65.0,11.62,50.34
0.062,0.3755,7.668,7.265,65.0,11.62,50.34
0.022,0.33925,7.655,7.249,65.0,11.62,50.34
0.11,0.259,7.643,7.23,65.0,11.62,50.33
0.293,0.168375,7.631,7.212,65.0,11.62,50.34
0.201,0.33925,7.619,7.198,65.0,11.62,50.32
-0.093,0.25125,7.609,7.183,63.0,11.62,50.33
-0.112,0.2435,7.598,7.168,63.0,11.62,50.39
-0.124,0.297875,7.587,7.154,63.0,11.62,50.47
-0.132,0.2745,7.577,7.139,63.0,11.62,50.57
-0.158,0.248625,7.567,7.127,63.0,11.62,50.7
-0.157,0.199375,7.557,7.113,63.0,11.62,50.83
-0.105,0.31075,7.547,7.098,63.0,11.62,50.98
-0.184,0.199375,7.537,7.087,63.0,11.62,51.11
-0.04,0.22525,7.529,7.073,63.0,11.62,51.22
0.065,0.33925,7.519,7.062,63.0,11.62,51.35
-0.087,0.271875,7.511,7.05,63.0,11.62,51.5
-0.006,0.2305,7.502,7.036,65.0,11.62,51.67
0.186,0.031125,7.495,7.024,65.0,11.62,51.82
0.133,0.3185,7.487,7.009,65.0,11.62,51.95
-0.149,0.35225,7.479,6.997,65.0,11.62,52.06
-0.161,0.12175,7.471,6.986,65.0,11.62,52.15
-0.159,0.12175,7.464,6.975,65.0,11.62,52.16
-0.152,0.277125,7.456,6.965,65.0,11.62,52.15
-0.18,0.22525,7.447,6.953,65.0,11.62,52.15
-0.101,0.240875,7.44,6.943,65.0,11.62,52.12
-0.152,0.3445,7.427,6.922,65.0,11.62,52.08
-0.187,0.401375,7.426,6.919,65.0,11.62,52.08
-0.026,0.372875,7.422,6.906,65.0,11.62,52.03
-0.06,0.372875,7.414,6.885,65.0,11.62,51.94
0.003,0.29,7.408,6.87,65.0,11.62,51.87
0.18,0.233125,7.402,6.862,65.0,11.64,51.8
0.289,0.2435,7.395,6.85,65.0,11.65,51.75
-0.044,0.35225,7.384,6.813,65.0,11.65,51.61
-0.094,0.25125,7.383,6.811,65.0,11.65,51.6
-0.07,0.284875,7.377,6.796,53.0,11.65,51.42
-0.072,0.347,7.372,6.781,53.0,11.65,51.21
-0.097,0.39625,7.367,6.769,53.0,11.65,51.03
-0.09,0.35225,7.362,6.755,53.0,11.65,50.9
-0.053,0.321125,7.356,6.741,53.0,11.65,50.8
-0.054,0.372875,7.35,6.731,53.0,11.65,50.71
-0.108,0.25375,7.344,6.727,53.0,11.65,50.61
0.321,0.308125,7.339,6.718,53.0,11.65,50.52
-0.105,0.357375,7.334,6.707,53.0,11.65,50.46
0.03,0.31075,7.33,6.694,53.0,11.64,50.39
0.148,0.269375,7.325,6.681,53.0,11.65,50.33
0.351,0.248625,7.32,6.672,53.0,11.65,50.3
0.124,0.32625,7.315,6.663,53.0,11.64,50.21
-0.069,0.29,7.31,6.654,53.0,11.64,50.15
-0.054,0.31075,7.305,6.647,53.0,11.64,50.09
-0.063,0.297875,7.3,6.641,53.0,11.64,49.95
-0.077,0.29525,7.295,6.636,53.0,11.64,49.88
-0.083,0.370375,7.29,6.628,53.0,11.64,49.85
-0.072,0.29,7.285,6.622,53.0,11.65,49.82
-0.042,0.29525,7.28,6.615,53.0,11.65,49.82
-0.058,0.25375,7.272,6.6,53.0,11.65,49.8
0.326,0.2745,7.271,6.599,53.0,11.65,49.8
0.265,0.271875,7.267,6.591,53.0,11.65,49.79
-0.086,0.2745,7.262,6.585,53.0,11.65,49.8
0.05,0.313375,7.257,6.579,62.0,11.65,49.8
0.173,0.16575,7.255,6.572,62.0,11.65,49.79
0.369,0.1165,7.245,6.56,62.0,11.65,49.77
0.123,0.36775,7.246,6.559,62.0,11.62,49.77
-0.064,0.29,7.242,6.554,62.0,11.62,49.77
-0.098,0.227875,7.238,6.549,62.0,11.62,49.76
-0.104,0.227875,7.234,6.542,62.0,11.62,49.64
-0.122,0.264125,7.23,6.537,62.0,11.62,49.68
-0.14,0.202,7.225,6.533,62.0,11.62,49.8
-0.164,0.119125,7.22,6.536,62.0,11.62,49.91
-0.111,0.202,7.214,6.575,62.0,11.61,50.14
-0.167,0.271875,7.214,6.577,62.0,11.62,50.15
-0.198,0.271875,7.21,6.596,62.0,11.64,50.28
0.187,0.28225,7.207,6.624,62.0,11.64,50.39
-0.127,0.349625,7.203,6.641,62.0,11.64,50.55
-0.075,0.163125,7.199,6.65,62.0,11.62,50.67
0.078,0.018125,7.195,6.656,87.0,11.62,50.83
0.22,0.305625,7.192,6.667,87.0,11.62,51.04
-0.09,0.38325,7.188,6.668,87.0,11.65,51.2
-0.177,0.28225,7.183,6.668,87.0,11.64,51.39
-0.149,0.3315,7.18,6.657,87.0,11.64,51.51
-0.155,0.284875,7.178,6.657,87.0,11.65,51.52
-0.161,0.2745,7.174,6.651,87.0,11.65,51.51
-0.126,0.29525,7.17,6.622,87.0,11.64,51.44
-0.071,0.328875,7.167,6.585,87.0,11.61,51.37
-0.129,0.406625,7.163,6.566,87.0,11.61,51.33
-0.045,0.271875,7.158,6.559,87.0,11.62,51.24
0.206,0.347,7.156,6.558,87.0,11.62,51.11
-0.012,0.36,7.151,6.554,87.0,11.62,51.02
0.083,0.12175,7.148,6.554,87.0,11.62,50.93
0.28,0.202,7.145,6.555,87.0,11.62,50.83
0.294,0.357375,7.141,6.555,87.0,11.62,50.77
-0.038,0.349625,7.138,6.552,87.0,11.62,50.68
-0.03,0.347,7.135,6.546,68.0,11.61,50.6
-0.041,0.3445,7.131,6.539,68.0,11.61,50.47
-0.044,0.303,7.128,6.534,68.0,11.61,50.34
-0.066,0.38325,7.125,6.529,68.0,11.61,50.29
-0.069,0.372875,7.121,6.523,68.0,11.62,50.27
0.002,0.3445,7.113,6.516,68.0,11.62,50.26
-0.057,0.35225,7.113,6.516,68.0,11.62,50.26
-0.063,0.336625,7.111,6.514,68.0,11.62,50.26
0.266,0.271875,7.108,6.509,68.0,11.62,50.06
0.019,0.362625,7.105,6.504,68.0,11.62,49.77
0.096,0.362625,7.101,6.499,68.0,11.64,49.69
0.265,0.313375,7.098,6.494,68.0,11.64,49.81
0.34,0.349625,7.096,6.489,68.0,11.64,49.97
-0.01,0.328875,7.093,6.488,68.0,11.64,50.14
-0.062,0.38325,7.09,6.488,65.0,11.62,50.16
-0.052,0.33925,7.087,6.487,65.0,11.61,50.07
-0.069,0.35475,7.085,6.488,65.0,11.6,49.98
-0.091,0.3885,7.081,6.487,65.0,11.6,50.02
-0.097,0.28225,7.077,6.489,65.0,11.6,50.07
-0.052,0.22275,7.076,6.494,65.0,11.6,50.11
-0.071,0.328875,7.073,6.5,65.0,11.6,50.16
-0.139,0.2745,7.072,6.508,65.0,11.6,50.18
0.262,0.26675,7.073,6.517,65.0,11.6,50.2
-0.123,0.25125,7.076,6.529,65.0,11.6,50.23
-0.03,0.2305,7.082,6.541,65.0,11.6,50.25
0.072,0.15025,7.091,6.56,64.0,11.6,50.31
0.25,0.191625,7.103,6.582,64.0,11.6,50.45
-0.018,0.284875,7.117,6.607,64.0,11.6,50.61
-0.196,0.308125,7.157,6.669,64.0,11.6,50.94
-0.19,0.28225,7.158,6.675,64.0,11.6,50.96
-0.207,0.29,7.185,6.708,64.0,11.6,51.05
-0.197,0.19425,7.214,6.74,64.0,11.6,51.18
-0.19,0.191625,7.244,6.775,64.0,11.6,51.31
-0.192,0.256375,7.277,6.811,64.0,11.6,51.42
-0.264,0.207125,7.315,6.852,64.0,11.6,51.49
-0.003,0.269375,7.352,6.888,64.0,11.6,51.57
-0.094,0.35225,7.425,6.962,64.0,11.6,51.76
-0.133,0.25125,7.428,6.967,64.0,11.6,51.78
-0.04,0.158,7.465,7.001,69.0,11.6,51.93
0.156,0.059625,7.501,7.034,69.0,11.6,52.04
0.066,0.3445,7.537,7.062,69.0,11.6,52.13
-0.16,0.240875,7.573,7.089,69.0,11.6,52.19
-0.172,0.23825,7.605,7.121,69.0,11.6,52.21
-0.155,0.12425,7.64,7.158,69.0,11.6,52.09
-0.165,0.170875,7.671,7.194,69.0,11.6,51.96
-0.15,0.321125,7.7,7.234,69.0,11.59,51.89
-0.146,0.2875,7.752,7.305,69.0,11.59,51.77
-0.155,0.28225,7.756,7.308,69.0,11.59,51.77
-0.134,0.32625,7.78,7.338,69.0,11.59,51.73
0.232,0.321125,7.802,7.361,69.0,11.59,51.66
-0.028,0.362625,7.821,7.384,69.0,11.59,51.59
0.057,0.23825,7.852,7.434,69.0,11.59,51.53
0.237,0.170875,7.853,7.437,69.0,11.59,51.53
0.3,0.36775,7.865,7.458,69.0,11.59,51.49
-0.015,0.308125,7.875,7.472,69.0,11.57,51.4
-0.045,0.308125,7.885,7.479,70.0,11.57,51.28
-0.038,0.233125,7.891,7.484,70.0,11.59,51.08
-0.047,0.261625,7.896,7.489,70.0,11.57,50.87
-0.055,0.334125,7.898,7.501,70.0,11.59,50.74
-0.046,0.303,7.894,7.513,70.0,11.57,50.57
0.021,0.2745,7.894,7.515,70.0,11.57,50.56
-0.072,0.36775,7.891,7.51,70.0,11.59,50.51
0.039,0.336625,7.885,7.501,70.0,11.6,50.46
0.222,0.349625,7.877,7.5,70.0,11.6,50.42
0.033,0.29525,7.867,7.5,70.0,11.6,50.38
0.132,0.233125,7.855,7.517,70.0,11.6,50.36
0.293,0.3315,7.843,7.555,70.0,11.6,50.36
0.247,0.336625,7.829,7.565,70.0,11.6,50.36
0.003,0.35225,7.816,7.553,70.0,11.6,50.36
-0.012,0.31075,7.801,7.547,67.0,11.6,50.39
-0.003,0.32375,7.787,7.548,67.0,11.6,50.34
-0.013,0.305625,7.757,7.543,67.0,11.6,50.3
-0.032,0.35475,7.755,7.545,67.0,11.6,50.3
-0.024,0.308125,7.74,7.543,67.0,11.6,50.32
0.033,0.303,7.725,7.55,67.0,11.6,50.35
-0.054,0.297875,7.712,7.521,67.0,11.6,50.38
-0.062,0.336625,7.7,7.523,67.0,11.6,50.41
0.245,0.316,7.688,7.536,67.0,11.6,50.46
-0.016,0.32375,7.679,7.538,67.0,11.6,50.55
0.053,0.300375,7.671,7.536,67.0,11.6,50.71
0.216,0.321125,7.665,7.54,67.0,11.6,50.88
0.266,0.215,7.66,7.54,67.0,11.6,51.03
-0.083,0.334125,7.658,7.542,67.0,11.6,51.14
-0.119,0.334125,7.658,7.543,65.0,11.6,51.27
-0.105,0.300375,7.658,7.546,65.0,11.6,51.33
-0.127,0.321125,7.659,7.545,65.0,11.6,51.37
-0.138,0.259,7.66,7.545,65.0,11.6,51.5
-0.077,0.29525,7.665,7.551,65.0,11.6,51.8
-0.162,0.271875,7.665,7.551,65.0,11.6,51.82
-0.073,0.271875,7.667,7.558,65.0,11.6,51.98
0.215,0.271875,7.668,7.573,65.0,11.6,52.19
-0.065,0.261625,7.669,7.61,65.0,11.6,52.39
0.012,0.2435,7.67,7.621,65.0,11.6,52.55
0.164,0.176125,7.67,7.645,65.0,11.6,52.73
0.257,0.3755,7.67,7.647,65.0,11.6,52.73
-0.05,0.305625,7.672,7.633,65.0,11.6,52.7
-0.079,0.300375,7.672,7.614,70.0,11.6,52.67
-0.084,0.31075,7.672,7.623,70.0,11.6,52.45
-0.086,0.313375,7.67,7.634,70.0,11.6,52.28
-0.08,0.32625,7.672,7.654,70.0,11.6,52.11
-0.042,0.32625,7.676,7.745,70.0,11.6,51.89
-0.045,0.3885,7.677,7.75,70.0,11.6,51.88
-0.076,0.391,7.683,7.781,70.0,11.6,51.78
0.289,0.248625,7.688,7.803,70.0,11.6,51.65
-0.038,0.362625,7.7,7.817,70.0,11.6,51.5
0.056,0.349625,7.712,7.827,70.0,11.6,51.41
0.169,0.336625,7.744,7.843,70.0,11.6,50.87
0.365,0.391,7.743,7.844,70.0,11.6,50.85
0.215,0.38325,7.761,7.852,70.0,11.61,50.87
-0.009,0.393625,7.778,7.859,68.0,11.61,51.0
-0.005,0.385875,7.798,7.867,68.0,11.61,51.12
-0.017,0.33925,7.818,7.874,68.0,11.6,51.14
-0.035,0.341875,7.838,7.875,68.0,11.6,51.1
-0.043,0.32375,7.857,7.874,68.0,11.55,51.12
0.004,0.292625,7.893,7.882,68.0,11.57,51.15
-0.031,0.2875,7.894,7.884,68.0,11.6,51.15
0.334,0.25375,7.909,7.894,68.0,11.6,51.15
0.277,0.25125,7.922,7.904,68.0,11.6,51.17
-0.07,0.292625,7.936,7.919,68.0,11.6,51.16
0.051,0.1425,7.947,7.931,67.0,11.55,51.18
0.181,0.2305,7.957,7.942,67.0,11.57,51.23
0.37,0.347,7.971,7.953,67.0,11.61,51.25
0.108,0.336625,7.971,7.955,67.0,11.65,51.25
-0.073,0.32375,7.976,7.952,67.0,11.65,51.25
-0.079,0.277125,7.981,7.957,67.0,11.6,51.29
-0.088,0.212375,7.985,7.967,67.0,11.59,51.28
-0.133,0.32625,7.987,7.986,67.0,11.6,51.31
-0.138,0.297875,7.987,8.004,67.0,11.62,51.42
-0.127,0.235625,7.99,8.016,67.0,11.61,51.5
-0.116,0.191625,7.99,8.032,67.0,11.61,51.61
-0.194,0.27975,7.993,8.055,67.0,11.62,51.69
0.155,0.220125,7.996,8.086,67.0,11.62,51.75
-0.143,0.409125,8.003,8.116,67.0,11.62,51.8
-0.073,0.305625,8.012,8.147,67.0,11.62,51.86
0.024,0.26675,8.026,8.181,90.0,11.64,51.97
0.22,0.212375,8.043,8.21,90.0,11.65,52.13
0.093,0.277125,8.063,8.232,90.0,11.67,52.29
-0.15,0.27975,8.088,8.244,90.0,11.66,52.45
-0.138,0.336625,8.115,8.265,90.0,11.65,52.59
-0.138,0.259,8.145,8.294,90.0,11.65,52.67
-0.139,0.316,8.177,8.319,90.0,11.65,52.79
-0.136,0.29,8.212,8.345,90.0,11.65,52.96
-0.082,0.163125,8.244,8.373,90.0,11.64,53.06
-0.154,0.256375,8.279,8.395,90.0,11.62,53.07
0.106,0.292625,8.312,8.415,90.0,11.62,52.98
0.136,0.292625,8.342,8.441,90.0,11.62,52.85
-0.06,0.32375,8.375,8.477,90.0,11.62,52.68
0.017,0.308125,8.402,8.51,74.0,11.62,52.57
0.186,0.207125,8.427,8.532,74.0,11.62,52.53
0.263,0.33925,8.472,8.548,74.0,11.62,52.36
-0.075,0.35475,8.473,8.548,74.0,11.62,52.36
-0.104,0.341875,8.492,8.548,74.0,11.64,52.34
-0.084,0.35475,8.512,8.539,74.0,11.64,52.24
-0.113,0.248625,8.535,8.534,74.0,11.62,52.08
-0.111,0.202,8.554,8.523,74.0,11.62,51.99
-0.106,0.2875,8.567,8.521,74.0,11.62,51.92
-0.041,0.27975,8.578,8.508,74.0,11.62,51.89
-0.078,0.362625,8.586,8.489,74.0,11.64,51.91
-0.121,0.313375,8.591,8.473,74.0,11.65,51.99
0.316,0.297875,8.594,8.467,74.0,11.64,52.07
-0.031,0.3315,8.591,8.45,74.0,11.61,52.12
0.064,0.32625,8.587,8.442,74.0,11.61,52.15
0.174,0.207125,8.578,8.437,74.0,11.62,52.14
0.378,0.20975,8.571,8.427,74.0,11.62,52.18
0.087,0.33925,8.564,8.423,74.0,11.62,52.17
-0.056,0.28225,8.534,8.382,60.0,11.62,52.01
-0.048,0.316,8.533,8.379,60.0,11.62,52.0
-0.06,0.32625,8.512,8.35,60.0,11.62,51.87
-0.075,0.328875,8.489,8.322,60.0,11.62,51.74
-0.083,0.370375,8.464,8.293,60.0,11.64,51.66
-0.079,0.23825,8.438,8.262,60.0,11.65,51.6
-0.008,0.32625,8.413,8.228,60.0,11.64,51.58
-0.075,0.297875,8.366,8.171,60.0,11.62,51.49
-0.089,0.36,8.361,8.167,60.0,11.62,51.48
0.264,0.292625,8.338,8.14,60.0,11.62,51.4
0.006,0.3185,8.312,8.113,60.0,11.62,51.37
0.081,0.2875,8.289,8.086,60.0,11.62,51.31
0.223,0.13725,8.266,8.056,60.0,11.64,51.22
0.348,0.248625,8.242,8.029,60.0,11.64,51.15
0.018,0.32625,8.218,8.001,60.0,11.62,51.09
-0.067,0.334125,8.196,7.976,63.0,11.62,51.05
-0.05,0.284875,8.174,7.951,63.0,11.61,50.96
-0.076,0.316,8.154,7.924,63.0,11.61,50.87
-0.085,0.259,8.133,7.899,63.0,11.61,50.84
-0.086,0.303,8.112,7.876,63.0,11.6,50.84
-0.11,0.297875,8.092,7.853,63.0,11.6,50.86
-0.059,0.336625,8.07,7.831,63.0,11.59,50.83
-0.12,0.261625,8.052,7.808,63.0,11.59,50.83
-0.168,0.334125,8.033,7.788,63.0,11.61,50.85
0.201,0.207125,8.016,7.769,63.0,11.62,50.92
-0.108,0.36,7.998,7.749,63.0,11.62,51.18
-0.036,0.25125,7.981,7.729,63.0,11.62,51.47
0.089,0.2435,7.966,7.71,61.0,11.64,51.76
0.232,0.297875,7.951,7.691,61.0,11.62,52.01
-0.095,0.3315,7.934,7.674,61.0,11.61,52.24
-0.201,0.362625,7.921,7.657,61.0,11.59,52.46
-0.198,0.176125,7.906,7.64,61.0,11.57,52.62
-0.206,0.1735,7.894,7.623,61.0,11.57,52.71
-0.214,0.321125,7.879,7.608,61.0,11.59,52.9
-0.215,0.31075,7.864,7.593,61.0,11.59,53.11
-0.144,0.27975,7.852,7.583,61.0,11.6,53.29
-0.222,0.2745,7.827,7.558,61.0,11.6,53.57
-0.23,0.334125,7.827,7.557,61.0,11.6,53.59
0.176,0.3315,7.815,7.544,61.0,11.6,53.67
-0.143,0.36775,7.803,7.531,61.0,11.59,53.75
-0.057,0.212375,7.793,7.518,61.0,11.55,53.77
0.092,0.300375,7.78,7.504,67.0,11.53,53.75
0.212,0.29525,7.771,7.492,67.0,11.53,53.71
-0.087,0.357375,7.76,7.48,67.0,11.6,53.6
-0.149,0.35225,7.748,7.467,67.0,11.64,53.44
-0.146,0.297875,7.738,7.457,67.0,11.64,53.2
-0.143,0.328875,7.728,7.45,67.0,11.66,52.95
-0.137,0.284875,7.718,7.449,67.0,11.66,52.75
-0.128,0.365125,7.708,7.435,67.0,11.65,52.61
-0.051,0.269375,7.698,7.419,67.0,11.61,52.52
-0.137,0.29525,7.69,7.41,67.0,11.57,52.34
-0.067,0.256375,7.681,7.407,67.0,11.55,52.16
0.21,0.328875,7.671,7.4,67.0,11.54,52.06
-0.017,0.321125,7.661,7.39,67.0,11.53,51.98
0.075,0.308125,7.654,7.376,67.0,11.54,51.95
0.252,0.2435,7.646,7.358,67.0,11.55,51.92
0.285,0.305625,7.636,7.34,67.0,11.55,51.85
-0.038,0.36,7.629,7.328,67.0,11.55,51.82
-0.074,0.372875,7.62,7.317,67.0,11.54,51.84
-0.066,0.256375,7.613,7.308,67.0,11.53,51.79
-0.087,0.303,7.604,7.302,67.0,11.55,51.7
-0.091,0.300375,7.597,7.297,67.0,11.55,51.64
-0.079,0.204625,7.589,7.292,67.0,11.55,51.66
-0.025,0.3445,7.582,7.272,67.0,11.55,51.73
-0.102,0.347,7.573,7.266,67.0,11.55,51.73
-0.021,0.29,7.559,7.253,67.0,11.55,51.68
0.226,0.334125,7.558,7.254,67.0,11.56,51.68
0.012,0.32375,7.551,7.247,67.0,11.56,51.67
0.098,0.25125,7.544,7.232,67.0,11.56,51.64
0.28,0.264125,7.537,7.219,67.0,11.56,51.61
0.289,0.300375,7.531,7.207,67.0,11.57,51.59
-0.039,0.336625,7.517,7.186,67.0,11.56,51.6
-0.061,0.365125,7.517,7.185,67.0,11.55,51.6
-0.074,0.29,7.511,7.183,67.0,11.55,51.55
-0.115,0.31075,7.505,7.182,67.0,11.55,51.5
-0.12,0.2745,7.499,7.186,67.0,11.55,51.54
-0.11,0.191625,7.491,7.198,67.0,11.56,51.86
-0.064,0.347,7.485,7.204,67.0,11.56,52.18
-0.176,0.316,7.477,7.203,67.0,11.56,52.39
-0.169,0.183875,7.471,7.197,67.0,11.55,52.49
0.173,0.139875,7.464,7.199,67.0,11.55,52.67
-0.113,0.082875,7.457,7.2,67.0,11.55,52.73
-0.046,0.069875,7.451,7.193,67.0,11.55,52.68
0.114,0.05175,7.445,7.179,65.0,11.54,52.63
-0.072,0.378125,7.439,7.171,65.0,11.55,52.64
-0.162,0.372875,7.435,7.163,65.0,11.55,52.75
-0.18,0.264125,7.429,7.154,65.0,11.56,52.77
-0.161,0.23825,7.423,7.144,65.0,11.57,52.71
-0.178,0.20975,7.415,7.141,65.0,11.57,52.67
-0.155,0.155375,7.404,7.134,65.0,11.6,52.75
-0.173,0.147625,7.403,7.133,65.0,11.6,52.77
-0.178,0.2875,7.395,7.13,65.0,11.61,52.97
0.247,0.2435,7.389,7.13,65.0,11.61,53.09
-0.045,0.233125,7.383,7.128,65.0,11.6,52.94
0.04,0.2875,7.37,7.111,65.0,11.57,52.37
0.211,0.3445,7.369,7.109,65.0,11.56,52.34
0.067,0.36775,7.364,7.094,65.0,11.57,52.13
-0.01,0.365125,7.359,7.09,75.0,11.57,52.06
-0.012,0.35475,7.354,7.089,75.0,11.57,52.23
-0.003,0.336625,7.349,7.079,75.0,11.59,52.32
-0.002,0.35225,7.342,7.072,75.0,11.56,52.13
0.038,0.33925,7.332,7.065,75.0,11.55,52.03
0.039,0.38075,7.333,7.065,75.0,11.55,52.04
0.286,0.2875,7.33,7.063,75.0,11.6,52.32
0.432,0.292625,7.327,7.059,75.0,11.61,52.44
0.097,0.3755,7.322,7.059,75.0,11.64,52.42
0.087,0.316,7.32,7.075,75.0,11.62,52.36
0.196,0.31075,7.315,7.101,75.0,11.62,52.37
0.407,0.35225,7.307,7.127,75.0,11.61,52.46
0.278,0.349625,7.307,7.127,75.0,11.61,52.45
0.025,0.32625,7.304,7.118,75.0,11.62,52.4
0.016,0.33925,7.3,7.102,80.0,11.62,52.29
0.012,0.1865,7.297,7.07,80.0,11.5,52.01
0.017,0.1735,7.292,7.026,80.0,11.5,51.75
0.018,0.261625,7.29,6.994,80.0,11.53,51.65
-0.05,0.334125,7.285,6.98,80.0,11.53,51.48
0.186,0.256375,7.282,6.98,80.0,11.48,51.46
0.073,0.357375,7.28,6.979,80.0,11.45,51.39
0.06,0.36775,7.277,6.978,80.0,11.48,51.37
0.144,0.19425,7.276,6.978,80.0,11.46,51.37
0.356,0.207125,7.276,6.979,80.0,11.43,51.39
0.242,0.23825,7.279,6.98,80.0,11.44,51.3
-0.013,0.27975,7.282,6.981,80.0,11.46,51.28
-0.002,0.284875,7.29,6.986,71.0,11.45,51.39
-0.002,0.246,7.298,6.994,71.0,11.42,51.34
0.059,0.191625,7.31,7.001,71.0,11.42,51.14
-0.02,0.28225,7.325,7.003,71.0,11.43,50.98
-0.062,0.259,7.339,7.004,71.0,11.45,50.96
0.31,0.212375,7.358,7.016,71.0,11.48,51.05
-0.007,0.365125,7.378,7.074,71.0,11.48,51.16
0.095,0.2875,7.402,7.153,71.0,11.48,51.28
0.325,0.204625,7.427,7.215,71.0,11.49,51.31
0.33,0.202,7.454,7.251,71.0,11.49,51.38
0.05,0.321125,7.484,7.26,71.0,11.49,51.52
-0.015,0.305625,7.513,7.249,80.0,11.46,51.66
0.0,0.170875,7.542,7.228,80.0,11.46,51.55
0.011,0.27975,7.59,7.2,80.0,11.46,51.2
-0.034,0.32375,7.594,7.199,80.0,11.48,51.19
-0.086,0.316,7.615,7.194,80.0,11.45,51.09
0.305,0.297875,7.625,7.189,80.0,11.55,51.05
-0.065,0.3185,7.632,7.181,80.0,11.6,51.0
0.064,0.349625,7.63,7.178,80.0,11.61,50.91
0.212,0.13725,7.63,7.173,80.0,11.59,50.72
0.375,0.28225,7.63,7.168,80.0,11.55,50.62
0.073,0.36,7.626,7.163,80.0,11.56,50.5
-0.026,0.29525,7.614,7.158,83.0,11.57,50.4
-0.02,0.357375,7.599,7.153,83.0,11.57,50.32
-0.014,0.29,7.583,7.148,83.0,11.57,50.19
-0.058,0.264125,7.569,7.145,83.0,11.59,50.08
0.002,0.284875,7.558,7.142,83.0,11.6,50.06
-0.085,0.3755,7.542,7.142,83.0,11.64,50.05
-0.145,0.328875,7.523,7.137,83.0,11.65,50.04
0.236,0.2745,7.508,7.141,83.0,11.65,50.13
-0.05,0.29,7.494,7.152,83.0,11.65,50.48
-0.011,0.284875,7.48,7.18,83.0,11.65,50.9
0.105,0.271875,7.47,7.241,72.0,11.64,51.27
0.201,0.235625,7.462,7.305,72.0,11.64,51.58
-0.117,0.393625,7.455,7.346,72.0,11.62,51.85
-0.186,0.35475,7.466,7.382,72.0,11.62,52.42
-0.191,0.31075,7.468,7.382,72.0,11.62,52.44
-0.232,0.341875,7.475,7.392,72.0,11.62,52.65
-0.233,0.297875,7.48,7.396,72.0,11.62,52.85
-0.179,0.313375,7.479,7.39,72.0,11.62,52.98
-0.251,0.248625,7.472,7.384,72.0,11.62,53.22
-0.268,0.313375,7.462,7.368,72.0,11.62,53.38
0.17,0.2435,7.451,7.349,72.0,11.62,53.44
-0.157,0.246,7.44,7.337,72.0,11.6,53.42
-0.071,0.246,7.429,7.327,72.0,11.6,53.36
0.023,0.1735,7.415,7.31,70.0,11.6,53.26
0.169,0.2875,7.405,7.291,70.0,11.59,53.18
-0.091,0.36775,7.397,7.267,70.0,11.57,53.05
-0.173,0.39625,7.392,7.232,70.0,11.57,52.75
-0.148,0.321125,7.393,7.229,70.0,11.57,52.73
-0.138,0.349625,7.393,7.214,70.0,11.57,52.55
-0.078,0.277125,7.393,7.203,70.0,11.61,52.44
-0.058,0.27975,7.393,7.191,70.0,11.61,52.36
-0.101,0.341875,7.393,7.18,70.0,11.61,52.3
-0.138,0.33925,7.392,7.173,70.0,11.59,52.22
0.29,0.269375,7.389,7.169,70.0,11.56,52.14
-0.045,0.341875,7.386,7.157,70.0,11.57,52.01
0.073,0.2745,7.386,7.156,70.0,11.56,52.01
0.202,0.32375,7.382,7.152,70.0,11.57,51.96
0.363,0.17875,7.379,7.148,70.0,11.57,51.9
0.073,0.33925,7.378,7.147,70.0,11.57,51.84
-0.021,0.297875,7.376,7.146,71.0,11.57,51.87
-0.031,0.28225,7.376,7.139,71.0,11.57,51.87
-0.031,0.277125,7.376,7.135,71.0,11.57,51.76
-0.047,0.199375,7.373,7.131,71.0,11.56,51.66
-0.047,0.235625,7.373,7.13,71.0,11.56,51.64
-0.005,0.119125,7.373,7.13,71.0,11.55,51.63
-0.016,0.401375,7.373,7.128,71.0,11.53,51.6
-0.06,0.334125,7.374,7.127,71.0,11.53,51.57
-0.014,0.264125,7.379,7.128,71.0,11.53,51.51
0.02,0.26675,7.382,7.133,71.0,11.53,51.46
0.078,0.36775,7.387,7.138,71.0,11.54,51.44
0.205,0.12175,7.393,7.146,71.0,11.55,51.49
0.375,0.119125,7.399,7.165,71.0,11.55,51.5
0.157,0.362625,7.414,7.212,71.0,11.55,51.62
-0.005,0.256375,7.416,7.215,71.0,11.53,51.63
-0.011,0.25375,7.426,7.249,50.0,11.53,51.51
-0.018,0.126875,7.445,7.293,50.0,11.53,51.36
-0.043,0.163125,7.467,7.336,50.0,11.53,51.27
-0.041,0.27975,7.495,7.371,50.0,11.53,51.2
-0.017,0.341875,7.533,7.423,50.0,11.51,51.24
-0.107,0.3315,7.534,7.425,50.0,11.51,51.24
-0.119,0.22525,7.548,7.445,50.0,11.51,51.26
0.183,0.27975,7.562,7.466,50.0,11.51,51.56
-0.081,0.32375,7.574,7.486,50.0,11.5,51.99
-0.029,0.168375,7.587,7.504,50.0,11.51,52.35
0.115,0.235625,7.597,7.52,50.0,11.51,52.54
0.187,0.300375,7.612,7.537,50.0,11.53,52.68
-0.158,0.347,7.639,7.555,50.0,11.51,52.75
-0.212,0.3445,7.682,7.571,50.0,11.51,52.81
-0.227,0.3185,7.736,7.586,50.0,11.51,52.87
-0.229,0.316,7.764,7.597,50.0,11.51,52.89
-0.18,0.202,7.776,7.604,50.0,11.51,52.99
-0.268,0.378125,7.778,7.615,50.0,11.51,53.19
-0.269,0.31075,7.778,7.615,50.0,11.51,53.2
0.117,0.29525,7.782,7.619,50.0,11.51,53.29
-0.162,0.292625,7.789,7.623,50.0,11.51,53.32
-0.071,0.313375,7.799,7.628,50.0,11.51,53.31
0.086,0.23825,7.815,7.631,50.0,11.51,53.29
0.142,0.235625,7.822,7.635,50.0,11.51,53.23
-0.136,0.3755,7.83,7.64,50.0,11.51,53.11
-0.154,0.321125,7.832,7.642,50.0,11.51,52.95
-0.125,0.160625,7.831,7.642,50.0,11.51,52.77
-0.117,0.372875,7.827,7.642,50.0,11.51,52.67
-0.037,0.308125,7.822,7.642,50.0,11.51,52.64
-0.132,0.2305,7.821,7.639,50.0,11.51,52.45
0.02,0.313375,7.823,7.635,50.0,11.51,52.27
0.17,0.271875,7.823,7.633,50.0,11.51,52.13
0.007,0.09325,7.824,7.628,50.0,11.51,52.02
0.109,0.220125,7.829,7.623,50.0,11.51,51.89
0.192,0.35225,7.838,7.618,50.0,11.51,51.81
0.141,0.35475,7.845,7.611,50.0,11.51,51.75
-0.045,0.36775,7.857,7.604,50.0,11.51,51.7
-0.051,0.261625,7.87,7.597,50.0,11.51,51.66
-0.055,0.23825,7.888,7.589,50.0,11.51,51.52
-0.015,0.2175,7.918,7.572,50.0,11.51,51.59
-0.081,0.336625,7.92,7.573,50.0,11.51,51.59
-0.123,0.297875,7.931,7.564,50.0,11.51,51.57
0.266,0.36,7.945,7.556,50.0,11.51,51.55
-0.061,0.336625,7.958,7.547,50.0,11.51,51.54
0.029,0.246,7.971,7.537,50.0,11.51,51.58
0.174,0.06475,7.977,7.529,50.0,11.51,51.56
0.297,0.16575,7.986,7.519,50.0,11.5,51.53
-0.019,0.35225,7.997,7.512,50.0,11.5,51.56
-0.085,0.347,8.006,7.502,81.0,11.51,51.59
-0.099,0.372875,8.007,7.496,81.0,11.51,51.56
-0.115,0.292625,8.006,7.489,81.0,11.51,51.41
-0.101,0.28225,8.005,7.484,81.0,11.51,51.37
-0.206,0.349625,8.003,7.479,81.0,11.5,51.39
-0.218,0.31075,8.001,7.478,81.0,11.5,51.41
0.112,0.2875,7.997,7.478,81.0,11.5,51.55
-0.165,0.284875,8.003,7.478,81.0,11.5,51.77
0.024,0.297875,8.023,7.479,81.0,11.5,52.01
0.104,0.308125,8.043,7.481,79.0,11.5,52.19
0.052,0.36775,8.058,7.486,79.0,11.5,52.4
-0.259,0.28225,8.082,7.491,79.0,11.5,52.58
-0.298,0.370375,8.102,7.496,79.0,11.5,52.64
-0.294,0.33925,8.139,7.51,79.0,11.5,52.7
-0.254,0.2435,8.139,7.511,79.0,11.5,52.71
-0.339,0.0725,8.104,7.519,79.0,11.5,52.85
-0.365,0.132125,8.1,7.532,79.0,11.5,53.14
0.054,0.308125,8.114,7.551,79.0,11.5,53.46
-0.274,0.284875,8.093,7.567,79.0,11.5,53.83
-0.196,0.292625,8.075,7.577,79.0,11.5,54.27
-0.035,0.39625,8.095,7.589,83.0,11.5,54.78
-0.007,0.334125,8.096,7.598,83.0,11.5,55.36
-0.294,0.36,8.054,7.61,83.0,11.5,55.93
-0.323,0.32625,8.028,7.618,83.0,11.5,56.49
-0.314,0.17875,8.026,7.62,83.0,11.5,56.99
-0.262,0.297875,8.027,7.627,83.0,11.5,57.3
-0.349,0.31075,8.046,7.624,83.0,11.5,57.54
-0.322,0.316,8.058,7.628,83.0,11.5,57.75
0.063,0.147625,8.058,7.63,83.0,11.5,58.05
-0.251,0.196875,8.045,7.635,83.0,11.5,58.3
-0.16,0.202,8.018,7.637,83.0,11.5,58.51
-0.042,0.292625,7.974,7.637,85.0,11.5,58.73
-0.083,0.292625,7.967,7.633,85.0,11.5,59.01
-0.286,0.3885,7.959,7.624,85.0,11.5,59.38
-0.281,0.300375,7.939,7.608,85.0,11.5,59.7
-0.243,0.3315,7.935,7.601,85.0,11.5,60.03
-0.247,0.370375,7.957,7.604,85.0,11.5,60.57
-0.317,0.349625,7.961,7.604,85.0,11.5,60.6
0.121,0.19425,8.001,7.593,85.0,11.5,60.78
-0.254,0.385875,8.03,7.581,85.0,11.5,61.07
-0.182,0.362625,8.063,7.577,85.0,11.5,61.37
-0.061,0.191625,8.086,7.576,87.0,11.5,61.66
0.138,0.25125,8.106,7.581,87.0,11.5,61.92
-0.119,0.308125,8.131,7.593,87.0,11.5,62.18
-0.262,0.365125,8.153,7.612,87.0,11.5,62.4
-0.255,0.321125,8.176,7.634,87.0,11.5,62.59
-0.196,0.334125,8.196,7.659,87.0,11.5,62.71
-0.268,0.357375,8.213,7.682,87.0,11.5,62.9
-0.314,0.341875,8.229,7.7,87.0,11.5,63.11
0.187,0.32625,8.242,7.716,87.0,11.5,63.27
-0.259,0.437625,8.257,7.74,87.0,11.5,63.49
-0.11,0.36775,8.272,7.773,87.0,11.5,63.82
0.113,0.305625,8.292,7.804,86.0,11.5,64.18
0.346,0.448,8.315,7.822,86.0,11.5,64.49
0.062,0.22275,8.335,7.839,86.0,11.5,64.73
0.047,0.341875,8.356,7.854,86.0,11.5,64.95
0.131,0.204625,8.378,7.873,86.0,11.5,65.2
0.139,0.168375,8.4,7.89,86.0,11.5,65.45
0.135,0.313375,8.422,7.906,86.0,11.5,65.7
0.618,0.292625,8.448,7.925,86.0,11.5,65.97
0.131,0.27975,8.467,7.957,86.0,11.5,66.27
0.238,0.207125,8.491,8.018,86.0,11.5,67.13
0.381,0.176125,8.493,8.023,86.0,11.5,67.19
0.482,0.233125,8.501,8.054,86.0,11.5,67.57
0.165,0.220125,8.51,8.083,86.0,11.5,67.7
0.146,0.189,8.519,8.088,86.0,11.5,67.66
0.146,0.191625,8.526,8.098,86.0,11.5,67.58
0.093,0.168375,8.532,8.108,86.0,11.5,67.56
0.079,0.1735,8.535,8.122,86.0,11.5,67.56
0.593,0.22275,8.539,8.133,86.0,11.5,67.54
0.162,0.23825,8.538,8.145,86.0,11.5,67.55
0.247,0.248625,8.538,8.145,86.0,11.5,67.55
0.373,0.316,8.556,8.149,86.0,11.5,67.52
0.328,0.313375,8.553,8.15,86.0,11.5,67.46
0.087,0.36775,8.548,8.15,86.0,11.5,67.41
0.075,0.35225,8.543,8.149,86.0,11.5,67.35
0.05,0.35475,8.54,8.145,86.0,11.5,67.29
0.093,0.349625,8.515,8.135,86.0,11.5,67.1
-0.02,0.38075,8.514,8.134,86.0,11.5,67.1
-0.013,0.336625,8.499,8.13,86.0,11.5,67.01
0.469,0.32625,8.485,8.127,86.0,11.5,66.92
0.071,0.313375,8.471,8.12,86.0,11.5,66.8
0.147,0.313375,8.458,8.113,86.0,11.5,66.71
0.337,0.316,8.443,8.104,86.0,11.5,66.62
0.292,0.300375,8.432,8.096,86.0,11.5,66.51
-0.014,0.370375,8.421,8.086,86.0,11.5,66.34
-0.017,0.341875,8.406,8.076,112.0,11.5,66.2
-0.032,0.27975,8.391,8.066,112.0,11.5,66.01
-0.062,0.370375,8.376,8.055,112.0,11.5,65.82
-0.081,0.372875,8.359,8.04,112.0,11.5,65.69
-0.096,0.33925,8.343,8.028,112.0,11.5,65.56
0.448,0.303,8.326,8.013,112.0,11.49,65.45
-0.007,0.328875,8.31,7.998,112.0,11.5,65.37
0.072,0.2745,8.281,7.97,112.0,11.5,65.22
0.252,0.1295,8.278,7.968,112.0,11.5,65.22
0.332,0.313375,8.263,7.953,112.0,11.5,65.16
-0.014,0.2875,8.246,7.939,112.0,11.5,65.09
-0.064,0.305625,8.229,7.924,84.0,11.49,65.05
-0.048,0.2745,8.212,7.909,84.0,11.49,65.02
-0.015,0.277125,8.197,7.894,84.0,11.5,64.96
-0.115,0.29525,8.18,7.879,84.0,11.49,64.89
0.231,0.336625,8.166,7.866,84.0,11.49,64.82
0.255,0.35225,8.152,7.854,84.0,11.49,64.78
-0.014,0.334125,8.137,7.84,84.0,11.49,64.76
0.074,0.2305,8.122,7.827,94.0,11.49,64.77
0.265,0.12175,8.105,7.813,94.0,11.49,64.75
0.215,0.227875,8.073,7.786,94.0,11.49,64.74
-0.121,0.3755,8.07,7.784,94.0,11.49,64.74
-0.135,0.3755,8.053,7.771,94.0,11.49,64.74
-0.115,0.215,8.035,7.757,94.0,11.49,64.73
-0.121,0.246,8.02,7.742,94.0,11.49,64.73
-0.216,0.067375,8.001,7.73,94.0,11.49,64.79
0.178,0.106125,7.967,7.705,94.0,11.49,64.93
-0.06,0.233125,7.964,7.704,94.0,11.49,64.94
0.014,0.305625,7.946,7.7,94.0,11.5,64.95
0.081,0.303,7.93,7.691,94.0,11.5,64.83
0.226,0.313375,7.913,7.683,80.0,11.5,64.64
-0.047,0.36775,7.894,7.684,80.0,11.5,64.44
-0.216,0.38325,7.857,7.675,80.0,11.5,64.18
-0.2,0.341875,7.777,7.649,80.0,11.48,63.73
-0.206,0.334125,7.774,7.648,80.0,11.48,63.71
-0.163,0.36,7.751,7.636,80.0,11.48,63.45
-0.255,0.33925,7.725,7.624,80.0,11.48,63.17
-0.23,0.429875,7.706,7.611,80.0,11.48,62.91
0.241,0.38325,7.689,7.601,80.0,11.49,62.67
-0.142,0.36775,7.673,7.597,80.0,11.49,62.41
-0.044,0.362625,7.661,7.598,80.0,11.5,62.19
0.15,0.4325,7.653,7.599,82.0,11.5,61.94
0.099,0.422125,7.655,7.596,82.0,11.49,61.64
-0.209,0.5465,7.701,7.587,82.0,11.49,61.39
-0.215,0.494625,7.844,7.576,82.0,11.49,61.2
-0.21,0.603375,8.059,7.561,82.0,11.49,60.96
-0.23,0.663,8.252,7.548,82.0,11.5,60.74
-0.237,0.52575,8.315,7.538,82.0,11.5,60.52
-0.241,0.4325,8.323,7.529,82.0,11.5,60.2
-0.234,0.479125,8.284,7.516,82.0,11.51,59.89
-0.174,0.624125,8.234,7.505,82.0,11.51,59.46
-0.248,0.442875,8.219,7.494,82.0,11.5,58.98
-0.222,0.300375,8.206,7.486,82.0,11.5,58.29
0.26,0.365125,8.177,7.474,82.0,11.5,57.94
-0.129,0.55425,8.159,7.461,82.0,11.5,57.68
-0.046,0.507625,8.134,7.45,82.0,11.49,57.54
0.124,0.35225,8.11,7.437,62.0,11.49,57.32
0.146,0.422125,8.084,7.427,62.0,11.5,57.14
-0.181,0.437625,8.059,7.415,62.0,11.5,56.96
-0.209,0.2175,8.043,7.405,62.0,11.53,56.79
-0.206,0.062125,8.029,7.394,62.0,11.53,56.58
-0.214,0.38325,8.026,7.383,62.0,11.53,56.34
-0.222,0.215,8.031,7.373,62.0,11.53,56.12
-0.219,0.264125,8.056,7.363,62.0,11.53,55.95
-0.185,0.29525,8.096,7.353,62.0,11.53,55.83
-0.164,0.22525,8.124,7.343,62.0,11.53,55.7
-0.16,0.139875,8.143,7.333,62.0,11.53,55.5
-0.211,0.17875,8.156,7.323,62.0,11.53,55.39
0.092,0.2745,8.166,7.315,62.0,11.51,55.24
0.049,0.341875,8.199,7.297,62.0,11.5,54.94
-0.069,0.429875,8.202,7.296,62.0,11.5,54.92
0.038,0.357375,8.259,7.288,59.0,11.51,54.75
0.22,0.29525,8.341,7.28,59.0,11.51,54.6
0.098,0.176125,8.391,7.271,59.0,11.5,54.44
-0.132,0.316,8.416,7.262,59.0,11.5,54.24
-0.134,0.316,8.437,7.255,59.0,11.5,54.28
-0.136,0.264125,8.453,7.247,59.0,11.5,54.23
-0.145,0.378125,8.462,7.239,59.0,11.51,54.02
-0.146,0.199375,8.468,7.231,59.0,11.51,53.82
-0.141,0.183875,8.47,7.216,59.0,11.51,53.45
-0.136,0.284875,8.47,7.215,59.0,11.51,53.43
-0.086,0.29,8.464,7.208,59.0,11.51,53.27
-0.125,0.17875,8.456,7.2,59.0,11.5,53.1
-0.156,0.212375,8.451,7.194,59.0,11.5,52.95
0.299,0.28225,8.446,7.188,59.0,11.5,52.84
-0.087,0.271875,8.457,7.183,59.0,11.5,52.76
0.0,0.27975,8.484,7.178,59.0,11.5,52.65
0.14,0.313375,8.514,7.173,59.0,11.5,52.55
0.287,0.308125,8.538,7.168,59.0,11.5,52.47
0.003,0.300375,8.564,7.165,59.0,11.5,52.35
-0.108,0.3885,8.602,7.162,59.0,11.5,52.22
-0.102,0.300375,8.646,7.162,59.0,11.5,52.08
-0.122,0.33925,8.683,7.159,59.0,11.5,51.89
-0.126,0.336625,8.709,7.159,59.0,11.5,51.77
-0.126,0.220125,8.729,7.157,59.0,11.5,51.72
-0.122,0.16575,8.752,7.157,59.0,11.51,51.68
-0.082,0.2175,8.783,7.156,59.0,11.53,51.63
-0.077,0.199375,8.871,7.155,59.0,11.53,51.54
-0.125,0.321125,8.876,7.155,59.0,11.51,51.53
0.328,0.235625,8.924,7.155,59.0,11.5,51.49
-0.113,0.259,8.96,7.155,59.0,11.5,51.43
0.007,0.1735,8.998,7.155,59.0,11.51,51.4
0.132,0.1165,9.035,7.155,59.0,11.5,51.36
0.305,0.212375,9.063,7.155,59.0,11.5,51.33
0.071,0.36775,9.093,7.152,59.0,11.5,51.29
-0.088,0.3185,9.117,7.151,61.0,11.5,51.27
-0.074,0.132125,9.139,7.15,61.0,11.5,51.24
-0.081,0.23825,9.161,7.151,61.0,11.5,51.15
-0.096,0.235625,9.178,7.155,61.0,11.5,51.1
-0.099,0.207125,9.192,7.155,61.0,11.5,51.09
-0.097,0.233125,9.194,7.152,61.0,11.5,51.09
-0.068,0.259,9.197,7.148,61.0,11.5,51.1
-0.052,0.2745,9.211,7.146,61.0,11.5,51.09
-0.103,0.32375,9.244,7.143,61.0,11.5,51.08
0.336,0.233125,9.276,7.138,61.0,11.5,51.09
-0.088,0.378125,9.293,7.136,61.0,11.5,51.1
0.034,0.316,9.308,7.132,61.0,11.5,51.12
0.155,0.2305,9.322,7.128,61.0,11.5,51.13
0.329,0.261625,9.332,7.125,61.0,11.5,51.14
0.12,0.336625,9.337,7.121,61.0,11.5,51.13
-0.061,0.3885,9.329,7.116,62.0,11.5,51.12
-0.053,0.3315,9.315,7.111,62.0,11.5,51.12
-0.06,0.261625,9.292,7.106,62.0,11.5,51.02
-0.07,0.25125,9.266,7.102,62.0,11.5,50.97
-0.074,0.284875,9.244,7.097,62.0,11.5,50.97
-0.075,0.256375,9.221,7.093,62.0,11.5,50.97
-0.028,0.391,9.195,7.087,62.0,11.5,50.98
-0.055,0.357375,9.158,7.081,62.0,11.5,50.96
-0.087,0.336625,9.132,7.076,62.0,11.5,50.96
0.313,0.300375,9.122,7.071,62.0,11.5,50.96
-0.021,0.303,9.117,7.066,62.0,11.5,50.97
0.062,0.35225,9.108,7.06,62.0,11.5,51.0
0.204,0.321125,9.102,7.054,62.0,11.5,51.01
0.342,0.25375,9.096,7.047,62.0,11.5,51.02
0.047,0.38075,9.09,7.041,62.0,11.5,51.01
-0.05,0.27975,9.088,7.036,63.0,11.5,51.02
-0.046,0.25375,9.099,7.029,63.0,11.5,51.01
-0.065,0.3185,9.098,7.024,63.0,11.5,50.94
-0.089,0.33925,9.092,7.016,63.0,11.5,50.94
-0.103,0.32375,9.079,7.011,63.0,11.5,50.98
-0.094,0.246,9.057,7.004,63.0,11.5,51.05
-0.078,0.259,9.034,6.997,63.0,11.5,51.15
-0.149,0.1735,9.008,6.991,63.0,11.5,51.25
0.266,0.196875,8.984,6.985,63.0,11.5,51.37
-0.146,0.38325,8.969,6.979,63.0,11.5,51.5
-0.054,0.27975,8.963,6.973,63.0,11.5,51.67
0.049,0.26675,8.954,6.967,63.0,11.5,51.84
0.017,0.25125,8.943,6.96,63.0,11.5,52.02
-0.058,0.259,8.93,6.954,64.0,11.5,52.18
-0.168,0.1735,8.913,6.949,64.0,11.5,52.31
-0.165,0.25375,8.897,6.942,64.0,11.5,52.43
-0.172,0.27975,8.88,6.937,64.0,11.5,52.47
-0.179,0.256375,8.847,6.925,64.0,11.5,52.54
-0.163,0.32625,8.846,6.924,64.0,11.5,52.55
-0.168,0.328875,8.828,6.919,64.0,11.5,52.54
-0.198,0.3445,8.814,6.914,64.0,11.5,52.49
0.265,0.264125,8.794,6.908,64.0,11.5,52.41
-0.175,0.365125,8.769,6.902,64.0,11.5,52.3
-0.05,0.36775,8.722,6.893,64.0,11.5,52.14
0.075,0.3315,8.72,6.892,64.0,11.5,52.13
0.25,0.28225,8.708,6.887,64.0,11.5,52.11
0.01,0.35475,8.697,6.882,64.0,11.5,52.05
-0.135,0.372875,8.695,6.877,72.0,11.5,51.96
-0.123,0.36775,8.715,6.872,72.0,11.5,51.87
-0.127,0.401375,8.744,6.867,72.0,11.5,51.72
-0.136,0.3755,8.768,6.86,72.0,11.5,51.6
-0.135,0.248625,8.776,6.857,72.0,11.5,51.53
-0.074,0.25375,8.776,6.852,72.0,11.5,51.46
-0.151,0.39625,8.769,6.847,72.0,11.5,51.41
-0.099,0.32375,8.758,6.842,72.0,11.5,51.36
0.203,0.38325,8.739,6.837,72.0,11.5,51.35
-0.057,0.385875,8.718,6.832,72.0,11.5,51.34
0.18,0.207125,8.696,6.827,72.0,11.5,51.32
0.256,0.207125,8.68,6.822,72.0,11.5,51.31
0.202,0.3315,8.678,6.817,72.0,11.5,51.3
-0.096,0.378125,8.674,6.812,72.0,11.5,51.27
-0.111,0.3885,8.668,6.807,68.0,11.5,51.24
-0.102,0.28225,8.655,6.798,68.0,11.5,51.1
-0.114,0.196875,8.655,6.797,68.0,11.5,51.09
-0.122,0.207125,8.646,6.793,68.0,11.5,51.06
-0.103,0.27975,8.637,6.788,68.0,11.5,51.03
-0.068,0.328875,8.63,6.783,68.0,11.5,51.03
0.188,0.347,8.625,6.778,68.0,11.5,51.03
0.302,0.349625,8.621,6.775,68.0,11.5,51.01
-0.022,0.385875,8.617,6.77,68.0,11.5,51.01
-0.013,0.429875,8.611,6.765,72.0,11.5,51.02
0.092,0.2875,8.603,6.76,72.0,11.5,51.02
0.281,0.336625,8.581,6.753,72.0,11.5,51.08
0.137,0.357375,8.58,6.75,72.0,11.49,51.08
-0.086,0.466125,8.568,6.747,72.0,11.49,51.09
-0.088,0.52575,8.559,6.743,72.0,11.5,51.0
-0.09,0.406625,8.553,6.738,72.0,11.5,50.87
-0.111,0.473875,8.548,6.733,72.0,11.5,50.88
-0.116,0.378125,8.543,6.73,72.0,11.5,50.99
-0.058,0.406625,8.538,6.725,72.0,11.5,51.25
-0.142,0.463625,8.533,6.723,72.0,11.5,51.6
-0.135,0.3315,8.525,6.718,72.0,11.5,51.77
0.239,0.4455,8.52,6.715,72.0,11.5,51.88
-0.073,0.507625,8.514,6.711,72.0,11.5,51.99
-0.005,0.404,8.512,6.708,72.0,11.5,52.1
0.167,0.391,8.514,6.705,100.0,11.5,52.3
0.186,0.35225,8.514,6.701,100.0,11.5,52.6
-0.147,0.349625,8.517,6.698,100.0,11.5,52.89
-0.18,0.36775,8.515,6.695,100.0,11.5,53.26
-0.177,0.393625,8.513,6.692,100.0,11.49,53.6
-0.2,0.417,8.508,6.69,100.0,11.5,53.89
-0.171,0.41175,8.499,6.687,100.0,11.49,54.15
-0.19,0.39625,8.488,6.685,100.0,11.49,54.36
-0.25,0.41175,8.474,6.682,100.0,11.49,54.52
0.226,0.341875,8.464,6.681,100.0,11.5,54.65
-0.234,0.528375,8.454,6.677,100.0,11.49,54.72
-0.119,0.422125,8.448,6.675,100.0,11.49,54.78
0.01,0.44025,8.441,6.671,74.0,11.49,54.86
0.19,0.551625,8.432,6.668,74.0,11.49,54.95
-0.088,0.4195,8.426,6.665,74.0,11.49,54.97
-0.235,0.31075,8.418,6.661,74.0,11.5,54.99
-0.219,0.365125,8.416,6.657,74.0,11.51,55.0
-0.227,0.505,8.411,6.655,74.0,11.51,55.0
-0.236,0.38075,8.411,6.651,74.0,11.51,54.97
-0.235,0.44025,8.415,6.648,74.0,11.51,54.93
-0.18,0.45575,8.415,6.645,74.0,11.5,54.92
-0.266,0.393625,8.417,6.641,74.0,11.5,54.86
-0.148,0.417,8.421,6.638,74.0,11.5,54.81
-0.128,0.404,8.426,6.635,74.0,11.5,54.82
-0.171,0.45575,8.437,6.631,74.0,11.5,54.82
-0.079,0.479125,8.446,6.628,68.0,11.5,54.83
0.109,0.341875,8.456,6.625,68.0,11.5,54.88
0.079,0.32625,8.465,6.619,68.0,11.5,54.93
-0.231,0.233125,8.465,6.618,68.0,11.5,54.94
-0.241,0.220125,8.461,6.614,68.0,11.5,54.89
-0.233,0.183875,8.453,6.611,68.0,11.5,54.8
-0.246,0.155375,8.444,6.608,68.0,11.49,54.77
-0.252,0.145,8.428,6.606,68.0,11.49,54.75
-0.247,0.347,8.413,6.601,68.0,11.49,54.69
-0.175,0.341875,8.401,6.599,68.0,11.49,54.56
-0.229,0.32375,8.387,6.595,68.0,11.5,54.38
-0.241,0.316,8.379,6.591,68.0,11.5,54.12
0.213,0.305625,8.374,6.586,68.0,11.49,53.91
-0.119,0.308125,8.365,6.579,68.0,11.5,53.74
-0.045,0.35475,8.355,6.572,68.0,11.5,53.61
0.123,0.35225,8.346,6.565,90.0,11.5,53.49
0.22,0.370375,8.341,6.557,90.0,11.5,53.53
-0.105,0.3315,8.334,6.555,90.0,11.5,53.59
-0.168,0.32375,8.329,6.551,90.0,11.5,53.82
-0.163,0.45325,8.321,6.545,90.0,11.5,53.96
-0.184,0.33925,8.318,6.543,90.0,11.5,54.03
-0.188,0.134625,8.312,6.54,90.0,11.51,54.13
-0.166,0.170875,8.307,6.543,90.0,11.53,54.28
-0.133,0.1295,8.302,6.54,90.0,11.53,54.68
-0.208,0.139875,8.298,6.539,90.0,11.51,55.15
0.156,0.261625,8.294,6.534,90.0,11.51,55.54
-0.106,0.341875,8.291,6.529,90.0,11.51,55.75
-0.078,0.233125,8.287,6.524,90.0,11.51,55.82
0.189,0.067375,8.284,6.522,90.0,11.51,55.92
0.25,0.06475,8.279,6.514,90.0,11.51,56.03
0.055,0.305625,8.273,6.509,90.0,11.5,56.14
-0.148,0.057,8.268,6.504,68.0,11.5,56.19
-0.137,0.271875,8.268,6.499,68.0,11.5,56.24
-0.128,0.401375,8.278,6.489,68.0,11.51,56.21
-0.136,0.212375,8.278,6.488,68.0,11.51,56.22
-0.108,0.033625,8.283,6.484,68.0,11.51,56.22
-0.09,0.321125,8.286,6.478,68.0,11.5,56.15
-0.153,0.321125,8.286,6.474,68.0,11.5,56.05
0.269,0.303,8.284,6.469,68.0,11.51,56.0
-0.125,0.406625,8.281,6.464,68.0,11.51,55.93
-0.023,0.29,8.277,6.459,68.0,11.51,55.85
0.246,0.170875,8.274,6.457,68.0,11.51,55.73
0.294,0.168375,8.269,6.452,68.0,11.51,55.57
0.074,0.046625,8.267,6.447,68.0,11.51,55.45
-0.1,0.126875,8.262,6.445,71.0,11.51,55.38
-0.085,0.069875,8.257,6.441,71.0,11.51,55.34
-0.084,0.134625,8.248,6.435,71.0,11.51,55.12
-0.098,0.271875,8.248,6.435,71.0,11.51,55.1
-0.036,0.246,8.244,6.432,71.0,11.51,55.04
-0.104,0.12425,8.241,6.431,71.0,11.51,54.98
-0.134,0.357375,8.238,6.429,71.0,11.51,54.95
0.259,0.233125,8.238,6.429,71.0,11.51,54.93
-0.044,0.349625,8.238,6.429,71.0,11.51,54.99
0.159,0.132125,8.242,6.43,71.0,11.51,55.12
0.234,0.119125,8.249,6.431,71.0,11.51,55.21
0.293,0.248625,8.258,6.432,71.0,11.51,55.22
-0.027,0.349625,8.267,6.436,71.0,11.51,55.17
-0.081,0.29,8.281,6.44,73.0,11.51,55.14
-0.069,0.334125,8.313,6.448,73.0,11.51,54.96
-0.074,0.261625,8.315,6.449,73.0,11.51,54.95
-0.087,0.259,8.333,6.452,73.0,11.51,54.93
-0.036,0.256375,8.353,6.457,73.0,11.51,54.99
-0.067,0.256375,8.373,6.464,73.0,11.51,55.01
-0.108,0.271875,8.395,6.469,73.0,11.51,54.98
0.303,0.264125,8.417,6.474,73.0,11.51,54.96
-0.062,0.334125,8.44,6.482,73.0,11.51,54.98
0.039,0.212375,8.461,6.487,73.0,11.51,54.99
0.171,0.069875,8.482,6.492,73.0,11.51,55.04
0.321,0.264125,8.502,6.497,73.0,11.51,55.1
0.023,0.357375,8.519,6.501,73.0,11.51,55.14
-0.075,0.25375,8.537,6.504,70.0,11.51,55.28
-0.064,0.357375,8.554,6.508,70.0,11.51,55.47
-0.075,0.357375,8.569,6.512,70.0,11.51,55.54
-0.094,0.406625,8.582,6.514,70.0,11.51,55.56
-0.066,0.341875,8.593,6.517,70.0,11.51,55.56
-0.048,0.347,8.605,6.521,70.0,11.51,55.51
-0.118,0.3445,8.615,6.523,70.0,11.51,55.41
0.277,0.300375,8.622,6.526,70.0,11.51,55.39
-0.092,0.33925,8.63,6.527,70.0,11.51,55.44
0.002,0.03625,8.635,6.529,70.0,11.51,55.47
0.115,0.038875,8.64,6.532,70.0,11.51,55.42
0.296,0.22525,8.642,6.533,70.0,11.51,55.3
0.103,0.284875,8.645,6.533,70.0,11.51,55.23
-0.082,0.33925,8.646,6.533,70.0,11.51,55.23
-0.072,0.347,8.646,6.533,70.0,11.5,55.25
-0.08,0.22275,8.644,6.533,70.0,11.51,55.14
-0.095,0.292625,8.64,6.531,70.0,11.51,55.08
-0.078,0.170875,8.635,6.529,70.0,11.51,55.03
-0.056,0.256375,8.63,6.528,70.0,11.5,55.02
-0.13,0.334125,8.623,6.527,70.0,11.5,55.04
0.208,0.176125,8.616,6.524,70.0,11.5,55.03
-0.076,0.32625,8.608,6.523,70.0,11.5,55.01
-0.02,0.336625,8.598,6.521,70.0,11.51,55.0
0.085,0.12175,8.588,6.517,70.0,11.51,55.03
0.266,0.1425,8.578,6.514,70.0,11.51,55.05
0.095,0.334125,8.569,6.512,70.0,11.51,55.05
-0.104,0.32625,8.559,6.507,71.0,11.53,55.04
-0.097,0.2745,8.549,6.504,71.0,11.51,55.03
-0.098,0.29525,8.539,6.501,71.0,11.5,54.95
-0.119,0.16575,8.526,6.497,71.0,11.5,54.92
-0.111,0.233125,8.515,6.492,71.0,11.5,54.92
-0.057,0.2305,8.503,6.487,71.0,11.5,54.94
-0.135,0.365125,8.489,6.482,71.0,11.5,55.0
-0.08,0.349625,8.472,6.477,71.0,11.5,55.1
0.17,0.32625,8.455,6.472,71.0,11.5,55.18
-0.059,0.38325,8.438,6.467,71.0,11.5,55.16
0.022,0.139875,8.422,6.463,71.0,11.43,55.15
0.188,0.269375,8.408,6.457,71.0,11.28,55.16
0.158,0.321125,8.394,6.452,71.0,11.29,55.18
-0.134,0.393625,8.384,6.447,70.0,11.28,55.26
-0.153,0.160625,8.374,6.442,70.0,11.28,55.38
-0.154,0.12425,8.377,6.436,70.0,11.28,55.44
-0.164,0.132125,8.383,6.431,70.0,11.28,55.53
-0.117,0.22275,8.377,6.425,70.0,11.29,55.63
-0.16,0.336625,8.366,6.42,70.0,11.29,55.74
-0.205,0.300375,8.347,6.411,70.0,11.29,56.05
0.209,0.2435,8.346,6.41,70.0,11.29,56.07
-0.166,0.31075,8.34,6.405,70.0,11.29,56.17
-0.051,0.36775,8.334,6.4,70.0,11.29,56.26
0.081,0.36775,8.333,6.395,74.0,11.29,56.35
0.213,0.196875,8.336,6.39,74.0,11.29,56.43
-0.057,0.199375,8.338,6.385,74.0,11.28,56.48
-0.133,0.2745,8.33,6.38,74.0,11.28,56.5
-0.121,0.2175,8.32,6.375,74.0,11.28,56.44
-0.116,0.35475,8.305,6.37,74.0,11.28,56.25
-0.098,0.25375,8.286,6.365,74.0,11.28,56.14
-0.045,0.29525,8.262,6.362,74.0,11.28,56.06
-0.12,0.316,8.239,6.356,74.0,11.28,56.02
0.123,0.259,8.222,6.353,74.0,11.28,55.96
0.07,0.35225,8.212,6.348,74.0,11.28,55.88
0.01,0.240875,8.217,6.343,74.0,11.28,55.82
0.116,0.202,8.246,6.338,74.0,11.28,55.75
0.304,0.25375,8.28,6.335,74.0,11.28,55.72
0.172,0.347,8.299,6.33,74.0,11.28,55.66
-0.053,0.26675,8.304,6.325,74.0,11.28,55.58
-0.041,0.259,8.308,6.322,75.0,11.28,55.55
-0.036,0.2175,8.308,6.318,75.0,11.28,55.45
-0.051,0.29525,8.306,6.313,75.0,11.28,55.36
-0.034,0.2435,8.304,6.309,75.0,11.28,55.3
0.0,0.0285,8.303,6.305,75.0,11.28,55.25
-0.077,0.362625,8.302,6.3,75.0,11.28,55.19
0.194,0.264125,8.299,6.298,75.0,11.28,55.15
0.075,0.36,8.293,6.293,75.0,11.28,55.13
0.038,0.313375,8.284,6.289,75.0,11.28,55.16
0.145,0.038875,8.278,6.285,75.0,11.28,55.13
0.335,0.12175,8.268,6.28,75.0,11.28,54.95
0.198,0.378125,8.259,6.278,75.0,11.28,54.89
-0.029,0.33925,8.254,6.273,75.0,11.28,54.88
-0.023,0.12175,8.243,6.271,71.0,11.28,54.88
-0.022,0.269375,8.233,6.267,71.0,11.28,54.78
-0.035,0.414375,8.231,6.263,71.0,11.28,54.69
-0.045,0.29525,8.225,6.258,71.0,11.28,54.64
0.004,0.196875,8.205,6.256,71.0,11.28,54.62
-0.025,0.334125,8.185,6.253,71.0,11.29,54.61
-0.064,0.328875,8.173,6.248,71.0,11.29,54.58
0.343,0.303,8.169,6.246,71.0,11.28,54.65
-0.017,0.370375,8.169,6.241,71.0,11.29,54.69
0.086,0.297875,8.169,6.238,71.0,11.29,54.69
0.227,0.204625,8.171,6.235,71.0,11.29,54.65
0.38,0.22275,8.175,6.231,71.0,11.29,54.64
0.089,0.3445,8.183,6.228,71.0,11.28,54.62
-0.002,0.297875,8.196,6.225,68.0,11.29,54.64
0.0,0.29525,8.201,6.222,68.0,11.29,54.61
-0.011,0.313375,8.201,6.218,68.0,11.29,54.52
-0.025,0.313375,8.199,6.216,68.0,11.29,54.49
-0.022,0.25125,8.195,6.212,68.0,11.29,54.49
0.03,0.248625,8.186,6.206,68.0,11.29,54.5
-0.052,0.246,8.186,6.206,68.0,11.29,54.5
0.054,0.31075,8.185,6.202,68.0,11.29,54.5
0.227,0.32625,8.194,6.198,68.0,11.29,54.53
0.049,0.31075,8.232,6.196,68.0,11.29,54.54
0.144,0.12175,8.266,6.192,68.0,11.29,54.54
0.328,0.227875,8.278,6.188,68.0,11.29,54.56
0.271,0.33925,8.284,6.186,68.0,11.29,54.56
-0.009,0.336625,8.288,6.184,68.0,11.29,54.56
-0.015,0.292625,8.291,6.18,68.0,11.29,54.57
-0.014,0.204625,8.292,6.176,68.0,11.29,54.51
-0.037,0.199375,8.291,6.174,68.0,11.29,54.44
-0.058,0.25375,8.289,6.17,68.0,11.29,54.44
-0.01,0.3445,8.284,6.166,68.0,11.29,54.44
-0.075,0.328875,8.282,6.164,68.0,11.29,54.53
-0.114,0.284875,8.277,6.16,68.0,11.29,54.64
0.267,0.284875,8.27,6.158,68.0,11.29,54.78
-0.059,0.29525,8.262,6.154,68.0,11.29,54.9
0.017,0.248625,8.253,6.151,68.0,11.29,55.02
0.154,0.300375,8.24,6.149,68.0,11.29,55.14
0.267,0.3185,8.228,6.146,68.0,11.29,55.25
-0.053,0.321125,8.218,6.144,68.0,11.29,55.36
-0.127,0.3315,8.21,6.14,69.0,11.29,55.45
-0.12,0.297875,8.206,6.139,69.0,11.29,55.53
-0.13,0.25375,8.21,6.135,69.0,11.29,55.6
-0.112,0.277125,8.219,6.134,69.0,11.29,55.68
-0.097,0.26675,8.229,6.133,69.0,11.29,55.78
-0.166,0.33925,8.235,6.13,69.0,11.29,55.88
0.226,0.271875,8.249,6.13,69.0,11.29,56.0
-0.097,0.38325,8.267,6.129,69.0,11.29,56.07
-0.025,0.202,8.288,6.129,69.0,11.29,56.1
0.085,0.119125,8.32,6.128,75.0,11.29,56.13
0.265,0.31075,8.359,6.128,75.0,11.29,56.16
0.063,0.33925,8.403,6.13,75.0,11.29,56.17
-0.111,0.372875,8.437,6.13,75.0,11.29,56.15
-0.093,0.163125,8.464,6.133,75.0,11.29,56.11
-0.094,0.16575,8.498,6.134,75.0,11.29,56.0
-0.096,0.32625,8.537,6.135,75.0,11.29,55.93
-0.043,0.277125,8.575,6.138,75.0,11.29,55.88
-0.062,0.313375,8.615,6.138,75.0,11.29,55.84
-0.097,0.370375,8.66,6.14,75.0,11.29,55.81
0.374,0.248625,8.702,6.141,75.0,11.29,55.78
-0.047,0.32375,8.749,6.143,75.0,11.29,55.73
0.078,0.227875,8.795,6.145,75.0,11.29,55.69
0.215,0.16575,8.84,6.146,75.0,11.28,55.66
0.389,0.277125,8.88,6.148,75.0,11.28,55.65
0.109,0.36775,8.914,6.149,75.0,11.29,55.6
-0.009,0.2875,8.944,6.15,72.0,11.28,55.53
0.02,0.27975,8.971,6.15,72.0,11.28,55.46
0.018,0.233125,9.0,6.15,72.0,11.28,55.34
0.009,0.347,9.025,6.15,72.0,11.27,55.25
0.041,0.163125,9.049,6.15,72.0,11.27,55.18
0.057,0.328875,9.072,6.151,72.0,11.26,55.1
0.0,0.31075,9.093,6.15,72.0,11.26,55.05
0.366,0.26675,9.116,6.15,72.0,11.26,55.01
0.102,0.33925,9.13,6.15,72.0,11.26,54.99
0.138,0.277125,9.143,6.15,72.0,11.26,54.94
0.256,0.202,9.158,6.149,72.0,11.26,54.92
0.462,0.119125,9.174,6.148,72.0,11.26,54.9
0.275,0.370375,9.183,6.145,72.0,11.27,54.85
0.058,0.269375,9.184,6.145,72.0,11.27,54.8
0.063,0.277125,9.182,6.144,70.0,11.27,54.75
0.064,0.271875,9.177,6.143,70.0,11.27,54.61
0.042,0.22275,9.172,6.14,70.0,11.27,54.48
0.031,0.385875,9.162,6.139,70.0,11.27,54.4
0.081,0.35225,9.15,6.136,70.0,11.27,54.37
0.035,0.25125,9.138,6.134,70.0,11.27,54.3
-0.009,0.292625,9.128,6.133,70.0,11.28,54.19
0.403,0.22275,9.122,6.131,70.0,11.28,54.07
-0.011,0.35475,9.124,6.128,70.0,11.29,54.15
0.075,0.36775,9.129,6.128,70.0,11.29,54.19
0.19,0.259,9.137,6.125,70.0,11.31,54.25
0.34,0.35475,9.154,6.123,70.0,11.31,54.33
0.011,0.36775,9.177,6.123,70.0,11.31,54.42
-0.133,0.29525,9.193,6.12,67.0,11.31,54.45
-0.125,0.349625,9.211,6.118,67.0,11.28,54.43
-0.138,0.334125,9.23,6.115,67.0,11.28,54.37
-0.165,0.328875,9.249,6.114,67.0,11.27,54.34
-0.14,0.1425,9.27,6.113,67.0,11.27,54.37
-0.179,0.147625,9.288,6.11,67.0,11.28,54.58
-0.23,0.3315,9.303,6.109,67.0,11.29,54.98
0.212,0.26675,9.317,6.108,67.0,11.29,55.14
-0.241,0.334125,9.332,6.105,67.0,11.29,54.81
-0.132,0.199375,9.348,6.104,67.0,11.29,54.78
-0.017,0.28225,9.363,6.103,70.0,11.29,55.11
0.156,0.25125,9.375,6.1,70.0,11.29,55.51
-0.139,0.365125,9.386,6.099,70.0,11.28,55.92
-0.274,0.38075,9.396,6.098,70.0,11.29,56.27
-0.26,0.334125,9.404,6.096,70.0,11.29,56.7
-0.263,0.25125,9.41,6.093,70.0,11.29,56.88
-0.229,0.341875,9.415,6.092,70.0,11.29,57.04
-0.25,0.328875,9.422,6.088,70.0,11.29,57.24
-0.3,0.334125,9.423,6.088,70.0,11.29,57.47
0.184,0.25375,9.423,6.088,70.0,11.28,57.59
-0.258,0.271875,9.422,6.088,70.0,11.28,57.77
-0.141,0.202,9.418,6.086,70.0,11.28,57.86
-0.008,0.1295,9.413,6.086,77.0,11.29,57.94
0.197,0.176125,9.41,6.086,77.0,11.29,57.99
-0.078,0.36,9.4,6.083,77.0,11.28,57.95
-0.228,0.196875,9.39,6.082,77.0,11.28,57.88
-0.2,0.227875,9.364,6.081,77.0,11.28,57.91
-0.197,0.212375,9.372,6.078,77.0,11.29,57.8
-0.191,0.207125,9.394,6.076,77.0,11.31,57.67
-0.127,0.204625,9.415,6.076,77.0,11.29,57.5
-0.196,0.35475,9.479,6.073,77.0,11.28,57.27
-0.216,0.35475,9.471,6.072,77.0,11.28,57.0
0.233,0.305625,9.42,6.069,77.0,11.28,56.81
-0.118,0.336625,9.373,6.067,77.0,11.28,56.68
-0.039,0.393625,9.321,6.063,77.0,11.29,56.52
0.135,0.168375,9.279,6.061,73.0,11.29,56.39
0.223,0.271875,9.239,6.057,73.0,11.28,56.33
-0.128,0.220125,9.206,6.054,73.0,11.29,56.38
-0.168,0.059625,9.182,6.053,73.0,11.29,56.46
-0.142,0.0725,9.15,6.049,73.0,11.29,56.57
-0.15,0.041375,9.119,6.046,73.0,11.31,56.57
-0.153,0.044,9.085,6.042,73.0,11.31,56.43
-0.144,0.04925,9.05,6.037,73.0,11.32,56.23
-0.079,0.269375,9.015,6.034,73.0,11.33,56.0
-0.156,0.334125,8.98,6.029,73.0,11.33,55.9
-0.159,0.1295,8.945,6.027,73.0,11.32,55.84
0.261,0.269375,8.907,6.023,73.0,11.31,55.73
-0.052,0.22525,8.868,6.019,73.0,11.31,55.63
0.027,0.259,8.831,6.017,73.0,11.32,55.54
0.21,0.06475,8.796,6.013,73.0,11.33,55.41
0.296,0.29,8.758,6.011,73.0,11.33,55.23
-0.046,0.450625,8.721,6.007,73.0,11.33,55.1
-0.089,0.347,8.678,6.004,66.0,11.33,54.94
-0.068,0.417,8.641,6.0,66.0,11.32,54.75
-0.077,0.3185,8.604,5.999,66.0,11.33,54.5
-0.087,0.35475,8.57,5.996,66.0,11.35,54.33
-0.092,0.3445,8.539,5.994,66.0,11.39,54.24
-0.046,0.349625,8.489,5.99,66.0,11.4,54.02
-0.055,0.336625,8.486,5.989,66.0,11.39,54.01
-0.104,0.292625,8.465,5.987,66.0,11.39,53.93
0.339,0.233125,8.445,5.984,66.0,11.38,53.87
-0.091,0.3445,8.423,5.981,66.0,11.35,53.77
0.027,0.365125,8.402,5.98,66.0,11.34,53.64
0.159,0.35475,8.385,5.972,66.0,11.33,53.51
0.374,0.316,8.365,5.967,66.0,11.33,53.27
0.136,0.39625,8.348,5.97,66.0,11.33,52.69
-0.061,0.3315,8.329,5.969,64.0,11.33,52.13
-0.043,0.32625,8.314,5.965,64.0,11.33,52.03
-0.044,0.393625,8.299,5.962,64.0,11.33,51.75
-0.06,0.321125,8.284,5.959,64.0,11.33,51.48
-0.07,0.347,8.269,5.955,64.0,11.33,51.41
-0.059,0.168375,8.257,5.952,64.0,11.32,51.37
-0.003,0.062125,8.242,5.947,64.0,11.32,51.33
-0.083,0.261625,8.232,5.944,64.0,11.32,51.31
-0.038,0.28225,8.225,5.945,64.0,11.32,51.51
0.258,0.347,8.219,5.94,64.0,11.32,51.55
0.008,0.336625,8.21,5.936,64.0,11.31,51.48
0.1,0.1735,8.195,5.935,64.0,11.32,51.38
0.295,0.069875,8.18,5.934,64.0,11.32,51.26
0.303,0.349625,8.167,5.934,64.0,11.33,51.19
-0.033,0.303,8.153,5.931,64.0,11.32,51.17
-0.065,0.19425,8.14,5.929,64.0,11.32,51.14
-0.064,0.261625,8.127,5.927,64.0,11.32,51.01
-0.091,0.227875,8.115,5.925,64.0,11.31,50.88
-0.116,0.12175,8.103,5.922,64.0,11.31,50.83
-0.1,0.261625,8.091,5.921,64.0,11.31,50.89
-0.105,0.271875,8.08,5.919,64.0,11.31,51.09
-0.163,0.20975,8.069,5.918,64.0,11.32,51.3
0.099,0.20975,8.058,5.915,64.0,11.31,51.54
-0.01,0.365125,8.046,5.913,64.0,11.31,51.78
-0.054,0.29,8.028,5.909,64.0,11.31,52.17
0.056,0.2305,8.026,5.909,67.0,11.31,52.19
0.269,0.0285,8.014,5.908,67.0,11.31,52.37
0.145,0.29525,8.004,5.907,67.0,11.31,52.53
-0.122,0.132125,7.994,5.904,67.0,11.31,52.66
-0.119,0.031125,7.984,5.903,67.0,11.31,52.77
-0.111,0.259,7.974,5.902,67.0,11.31,52.86
-0.039,0.334125,7.964,5.9,67.0,11.31,52.96
-0.108,0.372875,7.954,5.898,67.0,11.31,53.1
-0.139,0.3315,7.945,5.897,67.0,11.32,53.26
0.308,0.305625,7.935,5.895,67.0,11.33,53.4
-0.06,0.35475,7.925,5.894,67.0,11.33,53.43
0.048,0.347,7.915,5.892,67.0,11.33,53.33
0.221,0.321125,7.906,5.892,67.0,11.32,53.29
0.358,0.3445,7.897,5.89,67.0,11.29,53.32
0.011,0.35225,7.887,5.889,67.0,11.29,53.32
-0.054,0.38075,7.879,5.889,80.0,11.29,53.29
-0.031,0.3185,7.87,5.888,80.0,11.29,53.22
-0.035,0.321125,7.862,5.887,80.0,11.29,53.1
0.009,0.341875,7.853,5.887,80.0,11.28,53.04
-0.024,0.347,7.843,5.887,80.0,11.28,53.0
-0.071,0.2175,7.835,5.885,80.0,11.28,53.03
0.384,0.259,7.827,5.884,80.0,11.28,53.07
-0.008,0.3185,7.818,5.884,80.0,11.28,53.11
0.09,0.3185,7.809,5.884,80.0,11.29,53.13
0.253,0.215,7.802,5.884,80.0,11.35,53.17
0.412,0.227875,7.794,5.884,80.0,11.22,53.23
0.061,0.391,7.787,5.884,80.0,11.24,53.26
-0.021,0.370375,7.778,5.884,76.0,11.35,53.26
0.012,0.316,7.771,5.883,76.0,11.28,53.22
0.057,0.398875,7.762,5.882,76.0,11.32,53.14
0.015,0.36775,7.756,5.882,76.0,11.59,53.1
-0.026,0.316,7.747,5.882,76.0,11.79,53.07
0.421,0.220125,7.74,5.879,76.0,12.01,53.0
0.055,0.264125,7.733,5.882,76.0,12.15,52.97
0.174,0.25125,7.729,5.88,76.0,12.16,52.8
0.343,0.25375,7.725,5.879,76.0,12.12,52.66
0.492,0.22525,7.72,5.879,76.0,12.14,52.54
0.16,0.362625,7.713,5.877,76.0,12.26,52.41
0.079,0.32375,7.703,5.877,76.0,12.33,52.15
0.095,0.56975,7.696,5.877,76.0,12.54,51.92
0.067,0.316,7.688,5.877,76.0,12.9,51.65
0.066,0.334125,7.68,5.874,76.0,12.94,51.41
0.08,0.18125,7.673,5.873,76.0,12.87,51.14
0.12,0.139875,7.666,5.872,76.0,12.66,50.82
0.065,0.336625,7.66,5.872,76.0,12.72,50.36
0.372,0.292625,7.653,5.875,84.0,12.76,48.47
0.075,0.3315,7.652,5.877,84.0,12.67,48.36
-0.012,0.33925,7.65,5.877,84.0,12.59,48.14
-0.082,0.32625,7.643,5.877,84.0,12.6,48.24
-0.089,0.264125,7.638,5.877,84.0,12.58,48.45
-0.469,0.328875,7.63,5.877,84.0,12.55,48.42
-0.835,0.313375,7.625,5.874,84.0,12.53,48.04
-0.959,0.057,7.62,5.873,84.0,12.53,47.65
-1.057,0.22275,7.613,5.869,84.0,12.51,47.41
-1.122,0.212375,7.609,5.868,84.0,12.56,47.24
-1.114,0.300375,7.609,5.867,84.0,12.55,47.36
-1.018,0.168375,7.607,5.864,84.0,12.51,47.62
-1.009,0.12175,7.603,5.86,84.0,12.49,47.97
-0.993,0.1295,7.599,5.854,84.0,12.51,48.38
-0.538,0.158,7.593,5.852,84.0,12.55,48.83
-0.882,0.25375,7.588,5.85,84.0,12.56,49.12
-0.711,0.409125,7.581,5.849,84.0,12.54,49.33
-0.525,0.51275,7.576,5.827,84.0,12.53,49.48
-0.319,0.264125,7.571,5.828,84.0,12.47,49.6
-0.502,0.20975,7.563,5.835,84.0,12.37,49.65
-0.583,0.119125,7.559,5.843,84.0,12.36,49.67
-0.556,0.199375,7.553,5.842,84.0,12.37,49.69
-0.515,0.1865,7.548,5.842,84.0,12.39,49.76
-0.473,0.126875,7.543,5.842,84.0,12.47,50.02
-0.352,0.033625,7.536,5.844,84.0,12.51,50.26
-0.285,0.126875,7.531,5.844,84.0,12.53,50.63
-0.235,0.044,7.524,5.843,84.0,12.72,50.94
0.212,0.168375,7.518,5.84,84.0,12.78,50.97
-0.059,0.041375,7.513,5.837,84.0,12.78,51.12
0.098,0.04925,7.507,5.835,84.0,12.71,51.21
0.301,0.054375,7.501,5.835,84.0,12.76,51.16
0.49,0.119125,7.499,5.833,84.0,12.84,51.14
0.226,0.119125,7.494,5.829,84.0,12.8,51.17
0.154,0.033625,7.486,5.827,84.0,12.66,51.24
0.187,0.025875,7.483,5.825,84.0,12.6,51.28
0.197,0.04925,7.476,5.825,84.0,12.45,51.21
0.188,0.23825,7.471,5.825,84.0,12.47,51.14
0.249,0.246,7.465,5.826,84.0,12.47,51.15
0.181,0.362625,7.459,5.828,84.0,12.44,51.27
0.129,0.349625,7.454,5.832,84.0,12.44,51.29
0.488,0.19425,7.447,5.832,84.0,12.49,51.15
0.026,0.3755,7.441,5.832,84.0,12.44,50.92
0.012,0.336625,7.436,5.832,84.0,12.44,50.6
0.062,0.385875,7.431,5.832,84.0,12.5,50.15
0.136,0.365125,7.434,5.83,84.0,12.48,49.57
-0.235,0.32625,7.432,5.827,84.0,12.49,49.15
-0.474,0.32625,7.425,5.825,84.0,12.53,49.16
-0.565,0.305625,7.422,5.825,84.0,12.55,49.18
-0.669,0.271875,7.414,5.823,84.0,12.55,49.02
-0.786,0.277125,7.412,5.821,84.0,12.53,48.57
-0.936,0.25375,7.409,5.817,84.0,12.58,48.14
-0.99,0.233125,7.429,5.82,84.0,12.66,47.74
-1.095,0.336625,7.447,5.818,84.0,12.66,47.42
-1.118,0.235625,7.448,5.817,84.0,12.65,47.27
-0.752,0.308125,7.44,5.817,84.0,12.75,47.38
-1.013,0.33925,7.426,5.815,84.0,12.8,47.62
-0.893,0.277125,7.412,5.815,84.0,12.8,47.65
-0.719,0.391,7.397,5.813,84.0,12.84,47.37
-0.591,0.308125,7.384,5.812,84.0,12.88,47.05
-0.84,0.202,7.377,5.807,84.0,12.89,46.93
-0.87,0.147625,7.368,5.807,84.0,12.88,46.92
-0.839,0.215,7.36,5.811,84.0,12.87,46.92
-0.829,0.26675,7.353,5.817,84.0,12.86,46.83
-0.795,0.220125,7.343,5.826,84.0,12.86,46.55
-0.7,0.810625,7.335,5.847,84.0,12.87,46.3
-0.748,0.442875,7.327,5.865,84.0,12.87,46.27
-0.709,1.235375,7.321,5.867,84.0,12.84,46.38
-0.315,0.471375,7.315,5.87,84.0,12.84,46.5
-0.563,0.44025,7.308,5.874,84.0,12.86,46.64
-0.451,0.58275,7.301,5.875,84.0,12.88,46.78
-0.27,0.341875,7.291,5.881,84.0,12.89,47.0
-0.155,0.831375,7.283,5.89,84.0,12.89,47.37
-0.397,1.357,7.276,5.894,84.0,12.88,47.76
-0.403,0.349625,7.267,5.9,84.0,12.89,48.09
-0.283,0.16575,7.26,5.902,84.0,12.9,48.25
-0.264,0.16575,7.255,5.903,84.0,12.9,48.66
-0.222,0.07775,7.246,5.903,84.0,12.88,49.41
-0.122,0.046625,7.239,5.898,84.0,12.87,49.89
-0.125,0.088,7.234,5.895,84.0,12.78,50.05
0.047,0.095875,7.216,5.892,84.0,12.6,49.82
0.211,0.103625,7.215,5.892,84.0,12.36,49.79
0.083,0.07775,7.209,5.897,84.0,12.22,49.79
0.221,0.111375,7.2,5.895,84.0,12.09,49.91
0.444,0.10875,7.198,5.894,84.0,12.05,49.97
0.41,0.082875,7.188,5.894,84.0,11.98,49.88
0.135,0.069875,7.183,5.895,84.0,11.9,49.81
0.177,0.082875,7.173,5.899,84.0,11.89,49.52
0.182,0.07775,7.165,5.899,84.0,11.88,49.34
0.197,0.10875,7.16,5.897,84.0,11.84,49.38
0.205,0.07775,7.158,5.895,84.0,11.85,49.56
0.214,0.046625,7.153,5.894,84.0,11.85,49.67
0.146,0.271875,7.15,5.893,84.0,11.83,49.8
0.485,0.271875,7.146,5.893,84.0,11.85,49.87
0.182,0.328875,7.141,5.89,84.0,11.89,49.98
0.229,0.385875,7.137,5.888,84.0,11.93,50.3
0.341,0.305625,7.133,5.881,84.0,11.96,50.71
0.535,0.02075,7.128,5.875,84.0,11.99,50.92
0.393,0.3755,7.122,5.868,84.0,12.05,51.21
0.185,0.378125,7.118,5.867,84.0,11.98,51.94
0.196,0.385875,7.115,5.868,84.0,12.22,52.64
0.221,0.372875,7.111,5.865,84.0,12.29,53.04
0.271,0.1165,7.108,5.856,84.0,12.31,53.28
0.248,0.32375,7.105,5.846,84.0,12.28,53.73
0.238,0.3315,7.105,5.84,84.0,12.22,53.99
0.694,0.328875,7.102,5.838,84.0,12.18,53.92
0.335,0.370375,7.102,5.832,84.0,12.2,53.95
0.486,0.385875,7.102,5.823,84.0,12.25,54.36
0.649,0.313375,7.102,5.817,84.0,12.31,54.85
0.804,0.378125,7.105,5.813,84.0,12.39,55.17
0.534,0.365125,7.107,5.807,84.0,12.43,55.22
0.473,0.38325,7.105,5.798,84.0,12.45,55.1
0.502,0.3755,7.103,5.792,84.0,12.54,54.93
0.501,0.313375,7.1,5.782,84.0,12.6,54.69
0.516,0.044,7.097,5.777,84.0,12.59,54.25
0.511,0.365125,7.095,5.782,84.0,12.53,53.99
0.495,0.36775,7.095,5.802,84.0,12.51,53.83
0.525,0.33925,7.09,5.818,84.0,12.59,53.36
0.871,0.3315,7.092,5.807,84.0,12.61,52.91
0.59,0.385875,7.09,5.801,84.0,12.61,52.57
0.68,0.26675,7.152,5.837,84.0,12.6,52.24
0.861,0.119125,7.158,5.838,84.0,12.6,52.23
0.867,0.067375,7.205,5.845,84.0,12.64,52.03
0.558,0.057,7.236,5.85,84.0,12.81,51.8
0.537,0.119125,7.26,5.855,84.0,13.21,51.59
0.543,0.3315,7.27,5.863,84.0,14.5,51.35
0.522,0.349625,7.277,5.865,84.0,18.2,51.05
0.505,0.334125,7.291,5.867,84.0,20.28,50.64
0.562,0.341875,7.312,5.869,84.0,16.92,50.23
0.499,0.328875,7.314,5.869,84.0,13.64,50.02
0.463,0.362625,7.326,5.869,84.0,12.12,49.89
0.841,0.32625,7.332,5.87,84.0,11.87,49.76
0.514,0.385875,7.34,5.872,84.0,12.01,49.73
0.594,0.300375,7.346,5.872,84.0,11.87,49.67
0.729,0.018125,7.337,5.872,84.0,11.72,49.54
0.859,0.158,7.32,5.872,84.0,11.6,49.48
0.539,0.269375,7.31,5.872,84.0,11.5,49.48
0.443,0.031125,7.302,5.872,84.0,11.48,49.47
0.446,0.0285,7.295,5.872,84.0,11.39,49.41
0.421,0.044,7.292,5.873,84.0,11.06,49.25
0.391,0.090625,7.29,5.873,84.0,11.42,49.15
0.365,0.12175,7.289,5.874,84.0,10.89,49.13
0.349,0.07775,7.29,5.873,84.0,11.23,49.14
0.291,0.235625,7.294,5.874,84.0,11.15,49.19
0.255,0.227875,7.297,5.874,84.0,11.13,49.43
0.467,0.2305,7.305,5.874,84.0,10.98,49.84
0.387,0.328875,7.312,5.874,84.0,11.06,50.13
0.294,0.38325,7.321,5.874,84.0,11.0,50.36
0.369,0.365125,7.337,5.874,84.0,11.05,50.73
0.526,0.372875,7.337,5.874,84.0,11.0,50.74
0.408,0.3755,7.345,5.874,84.0,11.04,50.86
0.126,0.35475,7.354,5.874,84.0,11.01,50.97
0.104,0.370375,7.364,5.874,84.0,11.02,51.07
0.081,0.3885,7.373,5.874,84.0,11.01,51.11
0.049,0.372875,7.38,5.874,84.0,11.01,51.22
0.035,0.401375,7.389,5.874,84.0,11.01,51.4
0.073,0.372875,7.395,5.872,84.0,11.0,51.58
-0.017,0.401375,7.402,5.872,84.0,11.0,51.76
0.022,0.313375,7.407,5.87,84.0,11.0,51.89
0.267,0.308125,7.412,5.869,84.0,11.0,51.98
0.057,0.29,7.417,5.868,84.0,11.0,52.05
0.123,0.269375,7.419,5.867,84.0,11.0,52.19
0.289,0.196875,7.423,5.865,22.0,11.0,52.35
0.261,0.29525,7.425,5.863,22.0,11.0,52.48
-0.034,0.391,7.429,5.859,22.0,11.0,52.63
-0.058,0.170875,7.429,5.859,22.0,11.0,52.63
-0.066,0.22525,7.428,5.858,22.0,11.0,52.62
-0.082,0.305625,7.429,5.857,22.0,11.0,52.62
-0.086,0.32375,7.428,5.854,22.0,11.0,52.64
-0.034,0.398875,7.426,5.852,22.0,11.0,52.67
-0.114,0.378125,7.425,5.85,22.0,11.0,52.69
-0.096,0.35225,7.423,5.848,22.0,11.0,52.69
0.268,0.349625,7.421,5.845,22.0,11.0,52.63
-0.029,0.38075,7.417,5.843,22.0,11.0,52.58
0.05,0.341875,7.413,5.84,22.0,10.99,52.55
0.22,0.119125,7.409,5.838,22.0,11.0,52.55
0.229,0.328875,7.402,5.835,22.0,11.0,52.52
-0.06,0.38325,7.397,5.833,22.0,10.99,52.48
-0.071,0.39625,7.392,5.83,22.0,11.0,52.38
-0.056,0.385875,7.384,5.827,22.0,11.0,52.18
-0.056,0.41175,7.378,5.826,22.0,11.0,51.92
-0.053,0.38075,7.369,5.822,22.0,10.99,51.71
-0.047,0.38075,7.362,5.82,22.0,10.99,51.53
-0.004,0.313375,7.354,5.817,22.0,10.99,51.4
0.002,0.3755,7.347,5.813,22.0,10.99,51.25
-0.05,0.393625,7.338,5.812,22.0,10.99,51.03
0.398,0.27975,7.331,5.81,22.0,10.99,50.78
-0.039,0.385875,7.323,5.806,22.0,10.99,50.57
0.083,0.401375,7.315,5.803,22.0,10.99,50.42
0.212,0.29525,7.307,5.801,22.0,11.0,50.3
0.405,0.202,7.3,5.798,22.0,11.0,50.19
0.185,0.38325,7.292,5.796,22.0,11.0,50.06
0.0,0.3445,7.283,5.793,22.0,11.0,49.93
0.008,0.365125,7.277,5.791,22.0,11.0,49.79
0.002,0.3755,7.27,5.787,22.0,11.0,49.56
-0.018,0.3315,7.262,5.785,22.0,10.99,49.4
-0.029,0.25375,7.255,5.782,22.0,11.0,49.32
-0.033,0.36,7.247,5.78,22.0,11.0,49.24
-0.033,0.292625,7.243,5.777,22.0,11.0,49.19
-0.002,0.227875,7.235,5.775,22.0,11.0,49.12
0.004,0.328875,7.229,5.772,22.0,10.98,49.06
-0.049,0.370375,7.223,5.77,22.0,10.95,49.01
0.372,0.29525,7.215,5.767,22.0,10.98,49.01
-0.045,0.404,7.21,5.763,22.0,10.95,49.01
0.07,0.248625,7.204,5.762,22.0,10.96,48.98
0.192,0.199375,7.198,5.758,22.0,10.95,48.97
0.38,0.02325,7.193,5.757,22.0,10.95,48.97
0.184,0.349625,7.186,5.755,22.0,10.95,48.95
-0.023,0.35475,7.18,5.752,22.0,10.95,48.95
-0.019,0.2745,7.175,5.75,22.0,10.95,48.94
-0.022,0.160625,7.17,5.747,22.0,10.95,48.83
-0.045,0.163125,7.165,5.745,22.0,10.95,48.77
-0.057,0.308125,7.159,5.743,22.0,10.95,48.8
-0.063,0.328875,7.153,5.74,22.0,10.95,48.77
-0.063,0.39625,7.148,5.738,22.0,10.95,48.79
-0.041,0.38325,7.143,5.735,22.0,10.95,48.8
-0.023,0.32375,7.138,5.733,22.0,10.95,48.82
-0.083,0.220125,7.133,5.73,22.0,10.95,48.79
0.287,0.259,7.128,5.728,22.0,10.95,48.79
-0.059,0.3885,7.123,5.726,22.0,10.94,48.8
0.017,0.349625,7.118,5.724,22.0,10.95,48.8
0.122,0.3445,7.113,5.721,57.0,10.94,48.8
0.305,0.1165,7.108,5.719,57.0,10.94,48.81
0.14,0.3445,7.103,5.718,57.0,10.94,48.85
-0.104,0.4195,7.098,5.715,57.0,10.94,48.99
-0.111,0.3315,7.093,5.711,57.0,10.94,49.18
-0.113,0.196875,7.088,5.71,57.0,10.95,49.24
-0.132,0.2875,7.083,5.708,57.0,10.93,49.34
-0.151,0.271875,7.078,5.706,57.0,10.94,49.54
-0.163,0.191625,7.076,5.703,57.0,10.93,49.72
-0.148,0.02075,7.071,5.701,57.0,10.94,49.92
-0.123,0.3755,7.066,5.699,57.0,10.93,50.05
-0.192,0.29,7.061,5.698,57.0,10.94,50.15
0.174,0.2305,7.056,5.695,57.0,10.93,50.27
-0.157,0.3445,7.051,5.693,57.0,10.93,50.44
-0.097,0.041375,7.047,5.693,57.0,10.93,50.63
0.0,0.02075,7.044,5.691,62.0,10.93,50.8
0.193,0.22525,7.039,5.69,62.0,10.93,50.96
0.037,0.31075,7.034,5.688,62.0,10.93,51.11
-0.189,0.1165,7.029,5.685,62.0,10.93,51.26
-0.195,0.02325,7.026,5.683,62.0,10.93,51.41
-0.198,0.1165,7.021,5.68,62.0,10.93,51.5
-0.211,0.02075,7.016,5.678,62.0,10.93,51.67
-0.212,0.033625,7.011,5.675,62.0,10.93,51.87
-0.157,0.025875,7.007,5.673,62.0,10.93,52.04
-0.234,0.199375,7.004,5.671,62.0,10.93,52.19
-0.183,0.163125,6.999,5.669,62.0,10.93,52.24
0.135,0.277125,6.994,5.666,62.0,10.93,52.29
-0.129,0.1165,6.991,5.664,62.0,10.93,52.34
-0.039,0.313375,6.986,5.663,62.0,10.93,52.44
0.143,0.199375,6.981,5.659,69.0,10.93,52.55
0.143,0.3185,6.978,5.658,69.0,10.93,52.64
-0.165,0.3885,6.974,5.657,69.0,10.93,52.67
-0.186,0.341875,6.969,5.653,69.0,10.93,52.71
-0.181,0.36775,6.967,5.652,69.0,10.93,52.71
-0.188,0.35475,6.962,5.649,69.0,10.93,52.68
-0.176,0.3445,6.958,5.648,69.0,10.93,52.69
-0.135,0.308125,6.954,5.646,69.0,10.93,52.69
-0.209,0.372875,6.949,5.643,69.0,10.93,52.7
-0.017,0.29525,6.946,5.641,69.0,10.93,52.69
0.054,0.38325,6.942,5.638,69.0,10.93,52.65
-0.09,0.29,6.937,5.637,69.0,10.93,52.61
0.007,0.22525,6.934,5.633,72.0,10.93,52.6
0.202,0.158,6.929,5.632,72.0,10.93,52.62
0.112,0.32625,6.927,5.631,72.0,10.93,52.62
-0.162,0.378125,6.922,5.628,72.0,10.93,52.6
-0.165,0.347,6.919,5.626,72.0,10.93,52.57
-0.161,0.401375,6.914,5.624,72.0,10.93,52.45
-0.166,0.3885,6.911,5.622,72.0,10.93,52.34
-0.161,0.372875,6.907,5.619,72.0,10.93,52.3
-0.102,0.297875,6.902,5.618,72.0,10.93,52.26
-0.174,0.2745,6.899,5.616,72.0,10.93,52.24
-0.129,0.22525,6.896,5.613,72.0,10.93,52.2
0.234,0.36,6.892,5.612,72.0,10.93,52.1
-0.059,0.341875,6.889,5.608,72.0,10.93,52.0
0.031,0.256375,6.885,5.608,72.0,10.91,51.93
0.219,0.227875,6.881,5.606,70.0,10.91,51.88
0.23,0.33925,6.877,5.603,70.0,10.91,51.79
-0.085,0.385875,6.874,5.602,70.0,10.91,51.68
-0.105,0.2875,6.87,5.599,70.0,10.91,51.56
-0.088,0.35225,6.867,5.598,70.0,10.91,51.37
-0.091,0.372875,6.862,5.596,70.0,10.91,51.14
-0.086,0.22525,6.859,5.594,70.0,10.91,50.98
-0.084,0.22275,6.855,5.591,70.0,10.91,50.84
-0.044,0.163125,6.851,5.591,70.0,10.91,50.73
-0.027,0.29525,6.847,5.588,70.0,10.91,50.63
-0.079,0.160625,6.845,5.584,70.0,10.91,50.49
0.371,0.31075,6.838,5.581,70.0,10.91,50.31
-0.05,0.370375,6.837,5.582,70.0,10.91,50.29
0.063,0.240875,6.834,5.581,70.0,10.91,50.18
0.19,0.196875,6.831,5.578,70.0,10.91,50.09
0.393,0.227875,6.827,5.577,70.0,10.91,49.99
0.193,0.3445,6.824,5.576,70.0,10.91,49.88
-0.008,0.3315,6.82,5.573,70.0,10.91,49.77
0.0,0.29,6.817,5.571,63.0,10.91,49.65
0.002,0.277125,6.814,5.569,63.0,10.91,49.44
-0.013,0.2745,6.81,5.568,63.0,10.9,49.26
-0.025,0.435125,6.807,5.566,63.0,10.9,49.17
-0.029,0.246,6.804,5.565,63.0,10.9,49.11
-0.029,0.199375,6.802,5.564,63.0,10.9,49.09
-0.024,0.1165,6.798,5.561,63.0,10.9,49.02
0.028,0.362625,6.794,5.559,63.0,10.9,48.97
-0.034,0.3755,6.792,5.559,63.0,10.9,48.92
-0.031,0.303,6.789,5.556,63.0,10.9,48.87
0.334,0.3315,6.785,5.555,63.0,10.9,48.87
0.047,0.341875,6.783,5.552,63.0,10.9,48.86
0.124,0.199375,6.78,5.551,63.0,10.9,48.85
0.3,0.02325,6.777,5.55,63.0,10.9,48.85
0.372,0.220125,6.774,5.549,63.0,10.9,48.84
0.041,0.385875,6.77,5.546,63.0,10.9,48.8
-0.008,0.347,6.768,5.545,56.0,10.9,48.8
0.003,0.22525,6.764,5.544,56.0,10.9,48.73
-0.008,0.328875,6.762,5.541,56.0,10.9,48.64
-0.026,0.277125,6.758,5.54,56.0,10.9,48.64
-0.034,0.391,6.755,5.539,56.0,10.9,48.66
-0.034,0.033625,6.752,5.537,56.0,10.9,48.67
-0.033,0.25125,6.749,5.535,56.0,10.9,48.68
0.005,0.191625,6.745,5.534,56.0,10.9,48.69
-0.006,0.336625,6.742,5.531,56.0,10.9,48.7
-0.049,0.401375,6.739,5.53,56.0,10.9,48.71
0.361,0.2875,6.735,5.529,56.0,10.9,48.74
-0.041,0.393625,6.733,5.526,56.0,10.9,48.76
0.067,0.22275,6.729,5.525,56.0,10.9,48.77
0.188,0.163125,6.725,5.524,56.0,10.9,48.78
0.366,0.227875,6.723,5.521,56.0,10.9,48.8
0.114,0.39625,6.719,5.52,56.0,10.9,48.86
-0.071,0.1165,6.717,5.517,56.0,10.9,48.99
-0.072,0.27975,6.713,5.516,56.0,10.9,49.11
-0.082,0.196875,6.711,5.515,56.0,10.9,49.16
-0.11,0.1165,6.707,5.512,56.0,10.9,49.29
-0.129,0.29525,6.703,5.511,56.0,10.9,49.47
-0.14,0.1165,6.701,5.509,56.0,10.9,49.64
-0.141,0.163125,6.697,5.507,56.0,10.9,49.85
-0.103,0.189,6.695,5.506,56.0,10.9,50.0
-0.178,0.29525,6.691,5.504,56.0,10.9,50.11
-0.059,0.168375,6.688,5.501,56.0,10.9,50.22
0.064,0.362625,6.685,5.501,56.0,10.9,50.36
-0.114,0.19425,6.682,5.499,56.0,10.9,50.52
-0.035,0.02325,6.678,5.496,56.0,10.9,50.69
0.143,0.1165,6.676,5.494,60.0,10.9,50.85
0.107,0.328875,6.672,5.492,60.0,10.9,50.98
-0.191,0.38325,6.668,5.491,60.0,10.9,51.1
-0.207,0.202,6.666,5.489,60.0,10.9,51.21
-0.207,0.196875,6.662,5.487,60.0,10.9,51.27
-0.217,0.220125,6.661,5.485,60.0,10.89,51.29
-0.224,0.305625,6.656,5.484,60.0,10.9,51.34
-0.223,0.321125,6.653,5.481,60.0,10.89,51.37
-0.167,0.357375,6.647,5.479,60.0,10.89,51.38
-0.229,0.191625,6.647,5.479,60.0,10.89,51.38
-0.215,0.264125,6.643,5.477,60.0,10.9,51.33
0.153,0.33925,6.641,5.474,60.0,10.89,51.26
-0.135,0.336625,6.638,5.472,60.0,10.9,51.24
-0.053,0.196875,6.635,5.469,60.0,10.89,51.25
0.117,0.163125,6.631,5.468,65.0,10.89,51.25
0.17,0.2435,6.628,5.467,65.0,10.89,51.23
-0.145,0.385875,6.626,5.464,65.0,10.89,51.18
-0.174,0.370375,6.624,5.463,65.0,10.89,51.11
-0.153,0.357375,6.62,5.462,65.0,10.89,50.97
-0.149,0.297875,6.618,5.459,65.0,10.9,50.82
-0.148,0.316,6.614,5.457,65.0,10.89,50.7
-0.145,0.372875,6.611,5.455,65.0,10.89,50.61
-0.099,0.22275,6.608,5.453,65.0,10.89,50.55
-0.098,0.347,6.605,5.452,65.0,10.89,50.45
-0.143,0.35475,6.601,5.449,65.0,10.89,50.3
0.298,0.264125,6.599,5.448,65.0,10.89,50.15
-0.128,0.385875,6.595,5.447,65.0,10.89,50.01
0.0,0.227875,6.591,5.444,65.0,10.89,49.93
0.129,0.2435,6.589,5.443,65.0,10.89,49.84
0.331,0.227875,6.586,5.44,65.0,10.88,49.74
0.095,0.378125,6.583,5.438,65.0,10.89,49.63
-0.08,0.357375,6.58,5.437,64.0,10.89,49.53
-0.072,0.313375,6.578,5.435,64.0,10.89,49.44
-0.07,0.22525,6.575,5.432,64.0,10.89,49.24
-0.084,0.25375,6.571,5.432,64.0,10.89,49.11
-0.094,0.227875,6.569,5.429,64.0,10.89,49.06
-0.098,0.31075,6.565,5.427,64.0,10.88,49.0
-0.096,0.25125,6.563,5.424,64.0,10.89,48.97
-0.04,0.22525,6.56,5.424,64.0,10.89,48.93
-0.094,0.334125,6.556,5.422,64.0,10.88,48.92
-0.112,0.303,6.554,5.42,64.0,10.89,48.87
0.264,0.27975,6.55,5.418,64.0,10.88,48.87
-0.019,0.38325,6.548,5.417,64.0,10.88,48.86
0.046,0.3445,6.544,5.414,64.0,10.88,48.85
0.202,0.22525,6.541,5.413,64.0,10.88,48.85
0.327,0.264125,6.539,5.409,64.0,10.88,48.86
-0.002,0.31075,6.537,5.409,64.0,10.88,48.84
-0.086,0.196875,6.534,5.407,59.0,10.88,48.84
-0.076,0.313375,6.531,5.404,59.0,10.88,48.8
-0.085,0.199375,6.528,5.402,59.0,10.88,48.7
-0.103,0.246,6.524,5.4,59.0,10.88,48.68
-0.112,0.196875,6.522,5.399,59.0,10.88,48.69
-0.113,0.347,6.519,5.398,59.0,10.88,48.7
-0.113,0.163125,6.517,5.395,59.0,10.88,48.71
-0.058,0.160625,6.513,5.394,59.0,10.88,48.72
-0.12,0.271875,6.511,5.392,59.0,10.88,48.74
-0.117,0.26675,6.507,5.39,59.0,10.88,48.75
0.228,0.404,6.504,5.388,59.0,10.88,48.79
-0.043,0.461,6.502,5.387,59.0,10.88,48.81
0.023,0.22275,6.499,5.385,59.0,10.88,48.81
0.18,0.02325,6.496,5.382,59.0,10.88,48.82
0.246,0.378125,6.494,5.381,59.0,10.88,48.84
-0.101,0.401375,6.491,5.38,59.0,10.88,48.86
-0.167,0.277125,6.488,5.377,58.0,10.88,48.97
-0.167,0.25125,6.486,5.376,58.0,10.88,49.04
-0.189,0.033625,6.483,5.375,58.0,10.88,49.1
-0.213,0.10875,6.479,5.372,58.0,10.88,49.26
-0.229,0.27975,6.477,5.37,58.0,10.88,49.46
-0.239,0.199375,6.474,5.368,58.0,10.88,49.65
-0.237,0.2745,6.471,5.367,58.0,10.88,49.86
-0.196,0.1165,6.468,5.365,58.0,10.88,50.0
-0.267,0.2745,6.466,5.362,58.0,10.88,50.14
-0.19,0.292625,6.464,5.361,58.0,10.88,50.3
0.035,0.26675,6.461,5.36,58.0,10.88,50.49
-0.187,0.160625,6.457,5.358,58.0,10.88,50.68
-0.108,0.160625,6.456,5.356,58.0,10.88,50.83
0.064,0.163125,6.452,5.355,58.0,10.88,51.0
0.071,0.19425,6.45,5.352,58.0,10.88,51.15
-0.232,0.3445,6.447,5.35,58.0,10.88,51.27
-0.254,0.271875,6.445,5.348,58.0,10.88,51.39
-0.248,0.303,6.442,5.347,58.0,10.88,51.45
-0.253,0.233125,6.439,5.345,58.0,10.88,51.47
-0.258,0.199375,6.436,5.343,58.0,10.88,51.55
-0.252,0.19425,6.434,5.341,58.0,10.88,51.63
-0.194,0.2875,6.43,5.34,58.0,10.88,51.68
-0.257,0.25125,6.427,5.338,58.0,10.88,51.71
-0.232,0.25125,6.425,5.336,58.0,10.88,51.65
0.13,0.308125,6.422,5.335,58.0,10.88,51.58
-0.153,0.328875,6.42,5.332,58.0,10.88,51.56
-0.069,0.196875,6.417,5.33,58.0,10.87,51.56
0.102,0.160625,6.415,5.33,65.0,10.88,51.56
0.145,0.300375,6.412,5.327,65.0,10.87,51.53
-0.168,0.38325,6.41,5.325,65.0,10.87,51.47
-0.194,0.36,6.406,5.325,65.0,10.87,51.4
-0.177,0.2745,6.404,5.322,65.0,10.87,51.26
-0.177,0.2745,6.401,5.321,65.0,10.87,51.11
-0.175,0.3885,6.399,5.32,65.0,10.87,51.0
-0.168,0.39625,6.395,5.316,65.0,10.87,50.89
-0.109,0.220125,6.392,5.315,65.0,10.87,50.79
-0.121,0.35475,6.39,5.312,65.0,10.87,50.7
-0.154,0.341875,6.387,5.312,65.0,10.87,50.54
0.28,0.3185,6.385,5.31,65.0,10.87,50.34
-0.105,0.36,6.382,5.307,65.0,10.87,50.17
0.011,0.36,6.38,5.307,65.0,10.87,50.05
0.153,0.160625,6.376,5.305,65.0,10.87,49.93
0.343,0.220125,6.374,5.304,65.0,10.87,49.8
0.073,0.372875,6.371,5.303,65.0,10.87,49.67
-0.073,0.36,6.369,5.299,64.0,10.87,49.54
-0.061,0.3755,6.366,5.298,64.0,10.87,49.41
-0.059,0.3755,6.364,5.296,64.0,10.85,49.18
-0.072,0.292625,6.362,5.294,64.0,10.87,49.01
-0.079,0.199375,6.358,5.293,64.0,10.87,48.93
-0.08,0.308125,6.355,5.29,64.0,10.87,48.86
-0.076,0.269375,6.353,5.289,64.0,10.85,48.83
-0.018,0.22525,6.35,5.288,64.0,10.87,48.8
-0.079,0.25375,6.348,5.286,64.0,10.87,48.77
-0.082,0.305625,6.345,5.285,64.0,10.85,48.74
0.279,0.27975,6.343,5.283,64.0,10.85,48.74
-0.001,0.341875,6.34,5.281,64.0,10.85,48.75
0.073,0.316,6.338,5.279,64.0,10.85,48.75
0.241,0.02325,6.335,5.278,64.0,10.85,48.75
0.329,0.259,6.333,5.275,64.0,10.85,48.75
-0.008,0.2875,6.33,5.274,64.0,10.85,48.75
-0.071,0.196875,6.328,5.271,59.0,10.85,48.75
-0.063,0.196875,6.325,5.27,59.0,10.85,48.7
-0.075,0.401375,6.323,5.268,59.0,10.85,48.6
-0.093,0.328875,6.32,5.266,59.0,10.85,48.6
-0.1,0.248625,6.317,5.265,59.0,10.85,48.61
-0.107,0.25125,6.314,5.263,59.0,10.85,48.62
-0.113,0.196875,6.312,5.261,59.0,10.85,48.64
-0.065,0.02325,6.309,5.26,59.0,10.85,48.67
-0.111,0.1165,6.307,5.258,59.0,10.85,48.78
-0.144,0.404,6.304,5.256,59.0,10.85,48.94
0.229,0.303,6.302,5.255,59.0,10.85,49.14
-0.078,0.29,6.299,5.254,59.0,10.85,49.33
-0.006,0.199375,6.297,5.251,59.0,10.85,49.49
0.128,0.02075,6.294,5.25,59.0,10.85,49.66
0.267,0.27975,6.292,5.248,59.0,10.85,49.82
-0.102,0.401375,6.289,5.246,59.0,10.85,49.96
-0.161,0.401375,6.288,5.245,57.0,10.85,50.1
-0.157,0.196875,6.285,5.243,57.0,10.85,50.17
-0.173,0.0285,6.283,5.241,57.0,10.85,50.24
-0.189,0.1165,6.279,5.24,57.0,10.85,50.36
-0.203,0.313375,6.274,5.236,57.0,10.85,50.68
-0.202,0.22525,6.274,5.235,57.0,10.85,50.7
-0.148,0.29525,6.273,5.234,57.0,10.85,50.87
-0.202,0.3755,6.27,5.233,57.0,10.85,50.96
-0.219,0.26675,6.268,5.23,57.0,10.85,51.01
0.179,0.308125,6.266,5.23,57.0,10.85,51.09
-0.122,0.398875,6.262,5.228,57.0,10.85,51.21
-0.048,0.199375,6.261,5.228,57.0,10.85,51.32
0.104,0.02075,6.257,5.224,62.0,10.85,51.39
0.194,0.248625,6.255,5.223,62.0,10.85,51.45
-0.119,0.349625,6.253,5.22,62.0,10.85,51.44
-0.174,0.292625,6.251,5.219,62.0,10.85,51.43
-0.162,0.25375,6.248,5.218,62.0,10.85,51.35
-0.166,0.328875,6.246,5.215,62.0,10.85,51.22
-0.167,0.3755,6.243,5.215,62.0,10.85,51.15
-0.158,0.321125,6.241,5.213,62.0,10.85,51.09
-0.089,0.111375,6.238,5.211,62.0,10.85,51.04
-0.141,0.292625,6.235,5.211,62.0,10.85,50.99
-0.157,0.2875,6.232,5.208,62.0,10.85,50.88
0.249,0.292625,6.231,5.206,62.0,10.85,50.71
-0.052,0.313375,6.227,5.206,62.0,10.85,50.59
0.028,0.277125,6.225,5.203,62.0,10.85,50.45
0.193,0.227875,6.222,5.201,62.0,10.85,50.33
0.316,0.22275,6.22,5.199,62.0,10.85,50.2
-0.004,0.378125,6.218,5.198,62.0,10.85,50.04
-0.074,0.401375,6.215,5.196,66.0,10.85,49.9
-0.056,0.3445,6.213,5.194,66.0,10.85,49.72
-0.059,0.199375,6.211,5.193,66.0,10.85,49.5
-0.069,0.3755,6.208,5.191,66.0,10.85,49.34
-0.072,0.25125,6.205,5.189,66.0,10.85,49.26
-0.072,0.163125,6.202,5.188,66.0,10.85,49.16
-0.064,0.35225,6.2,5.186,66.0,10.85,49.07
-0.068,0.35225,6.198,5.186,66.0,10.85,49.0
-0.087,0.341875,6.195,5.183,66.0,10.85,48.92
0.321,0.328875,6.193,5.182,66.0,10.85,48.86
-0.051,0.393625,6.191,5.179,66.0,10.85,48.84
0.051,0.300375,6.186,5.177,66.0,10.85,48.81
0.187,0.025875,6.185,5.177,66.0,10.85,48.81
0.373,0.248625,6.184,5.176,66.0,10.85,48.81
0.11,0.36775,6.181,5.173,66.0,10.85,48.79
-0.044,0.313375,6.179,5.172,66.0,10.85,48.78
-0.035,0.25375,6.175,5.171,66.0,10.85,48.76
-0.036,0.248625,6.174,5.168,66.0,10.85,48.65
-0.052,0.308125,6.171,5.166,66.0,10.85,48.6
-0.058,0.284875,6.168,5.166,60.0,10.85,48.63
-0.058,0.202,6.166,5.163,60.0,10.85,48.63
-0.056,0.2745,6.164,5.161,60.0,10.84,48.64
-0.02,0.246,6.161,5.159,60.0,10.84,48.65
-0.024,0.29525,6.158,5.158,60.0,10.84,48.68
-0.065,0.292625,6.156,5.157,60.0,10.84,48.68
-0.02,0.3755,6.153,5.156,60.0,10.84,48.71
0.002,0.3755,6.151,5.154,60.0,10.84,48.74
0.052,0.36775,6.149,5.152,60.0,10.84,48.74
0.166,0.220125,6.146,5.151,60.0,10.84,48.76
0.346,0.111375,6.144,5.148,60.0,10.84,48.77
0.132,0.370375,6.139,5.146,60.0,10.84,48.76
-0.079,0.227875,6.14,5.147,60.0,10.84,48.76
-0.1,0.2305,6.136,5.143,46.0,10.84,48.79
-0.108,0.2305,6.134,5.143,46.0,10.84,48.81
-0.129,0.16575,6.131,5.141,46.0,10.84,48.95
-0.149,0.357375,6.129,5.139,46.0,10.84,49.18
-0.163,0.227875,6.126,5.138,46.0,10.84,49.39
-0.172,0.199375,6.121,5.135,46.0,10.84,49.78
-0.155,0.2745,6.121,5.136,46.0,10.84,49.79
-0.153,0.196875,6.119,5.133,46.0,10.84,49.9
-0.213,0.19425,6.118,5.131,46.0,10.84,50.03
0.195,0.25125,6.115,5.129,46.0,10.84,50.21
-0.22,0.385875,6.113,5.128,46.0,10.84,50.41
-0.116,0.2175,6.11,5.126,46.0,10.84,50.58
-0.013,0.119125,6.108,5.126,46.0,10.84,50.74
0.163,0.1165,6.105,5.124,46.0,10.84,50.88
0.0,0.41175,6.103,5.121,46.0,10.84,51.03
-0.209,0.328875,6.1,5.12,46.0,10.84,51.16
-0.2,0.119125,6.098,5.119,46.0,10.84,51.26
-0.194,0.1165,6.097,5.116,46.0,10.84,51.31
-0.2,0.02075,6.093,5.116,46.0,10.84,51.39
-0.198,0.1165,6.092,5.114,46.0,10.84,51.51
-0.189,0.391,6.089,5.111,46.0,10.84,51.58
-0.129,0.347,6.087,5.11,46.0,10.84,51.63
-0.184,0.391,6.084,5.109,46.0,10.84,51.63
-0.143,0.29525,6.082,5.107,46.0,10.84,51.56
0.199,0.297875,6.079,5.106,46.0,10.84,51.51
-0.072,0.328875,6.077,5.104,46.0,10.83,51.5
0.014,0.362625,6.074,5.102,46.0,10.84,51.5
0.185,0.2745,6.072,5.101,46.0,10.83,51.47
0.228,0.303,6.069,5.099,46.0,10.84,51.42
-0.075,0.36,6.067,5.097,46.0,10.83,51.33
-0.101,0.313375,6.064,5.096,64.0,10.83,51.24
-0.083,0.196875,6.062,5.094,64.0,10.83,51.06
-0.083,0.35475,6.061,5.094,64.0,10.83,50.84
-0.083,0.29525,6.057,5.091,64.0,10.83,50.7
-0.077,0.341875,6.054,5.09,64.0,10.83,50.6
-0.061,0.292625,6.053,5.089,64.0,10.83,50.52
-0.003,0.316,6.051,5.087,64.0,10.83,50.44
-0.059,0.313375,6.048,5.086,64.0,10.83,50.3
0.011,0.33925,6.046,5.084,64.0,10.83,50.14
0.033,0.347,6.043,5.082,64.0,10.83,50.01
0.056,0.29,6.039,5.081,64.0,10.83,49.92
0.151,0.2875,6.037,5.079,64.0,10.83,49.82
0.345,0.025875,6.034,5.077,64.0,10.83,49.72
0.365,0.297875,6.031,5.075,64.0,10.83,49.49
0.05,0.292625,6.031,5.074,64.0,10.83,49.48
0.033,0.292625,6.028,5.072,64.0,10.83,49.37
0.044,0.305625,6.027,5.071,64.0,10.83,49.19
0.035,0.31075,6.024,5.07,64.0,10.83,48.99
0.027,0.1865,6.022,5.067,64.0,10.83,48.89
0.027,0.114,6.017,5.064,64.0,10.83,48.8
0.025,0.1165,6.016,5.065,64.0,10.83,48.8
0.03,0.29,6.014,5.064,64.0,10.83,48.77
0.083,0.19425,6.012,5.061,64.0,10.83,48.74
0.027,0.313375,6.011,5.061,64.0,10.83,48.73
0.013,0.385875,6.007,5.059,64.0,10.83,48.71
0.378,0.297875,6.006,5.057,64.0,10.83,48.72
0.091,0.385875,6.004,5.056,64.0,10.83,48.72
0.16,0.16575,6.001,5.055,64.0,10.83,48.72
0.325,0.018125,5.999,5.054,64.0,10.83,48.73
0.44,0.336625,5.996,5.051,64.0,10.83,48.73
0.113,0.328875,5.994,5.05,64.0,10.83,48.72
0.036,0.32625,5.992,5.047,64.0,10.83,48.73
0.05,0.271875,5.99,5.046,64.0,10.83,48.68
0.04,0.316,5.989,5.045,64.0,10.83,48.58
0.015,0.25125,5.985,5.044,64.0,10.83,48.57
-0.001,0.2875,5.984,5.041,64.0,10.83,48.59
-0.015,0.163125,5.981,5.041,64.0,10.83,48.59
-0.028,0.29525,5.979,5.039,64.0,10.83,48.63
-0.025,0.22525,5.976,5.038,64.0,10.83,48.77
0.005,0.3315,5.974,5.037,64.0,10.83,48.97
-0.065,0.3755,5.971,5.035,64.0,10.83,49.16
0.143,0.28225,5.97,5.034,64.0,10.83,49.35
0.099,0.365125,5.967,5.032,64.0,10.83,49.55
0.003,0.196875,5.965,5.03,64.0,10.83,49.72
0.087,0.25375,5.962,5.029,64.0,10.83,49.88
0.259,0.196875,5.961,5.027,64.0,10.83,50.05
0.211,0.28225,5.959,5.027,64.0,10.82,50.23
-0.086,0.372875,5.956,5.024,73.0,10.83,50.39
-0.109,0.2745,5.955,5.023,73.0,10.83,50.54
-0.112,0.1165,5.952,5.022,73.0,10.82,50.63
-0.13,0.25375,5.95,5.02,73.0,10.82,50.75
-0.14,0.349625,5.947,5.019,73.0,10.82,50.91
-0.148,0.277125,5.946,5.017,73.0,10.82,51.05
-0.104,0.168375,5.944,5.014,73.0,10.82,51.23
-0.133,0.02075,5.941,5.014,73.0,10.82,51.37
-0.165,0.308125,5.939,5.012,73.0,10.82,51.45
0.259,0.32625,5.936,5.01,73.0,10.82,51.48
-0.127,0.38075,5.934,5.009,73.0,10.82,51.55
-0.028,0.29525,5.932,5.007,73.0,10.82,51.63
0.095,0.227875,5.929,5.007,63.0,10.82,51.71
0.258,0.160625,5.927,5.004,63.0,10.82,51.74
-0.011,0.38325,5.925,5.003,63.0,10.82,51.74
-0.137,0.3315,5.924,5.002,63.0,10.82,51.74
-0.127,0.227875,5.921,5.0,63.0,10.81,51.69
-0.129,0.191625,5.919,4.999,63.0,10.81,51.57
-0.13,0.308125,5.917,4.997,63.0,10.81,51.47
-0.128,0.227875,5.914,4.995,63.0,10.82,51.4
-0.071,0.2175,5.912,4.994,63.0,10.82,51.35
-0.081,0.38325,5.909,4.992,63.0,10.81,51.29
-0.114,0.36775,5.908,4.992,63.0,10.81,51.17
0.333,0.313375,5.905,4.989,63.0,10.82,50.98
-0.066,0.357375,5.903,4.988,63.0,10.82,50.79
0.048,0.29525,5.9,4.987,63.0,10.81,50.61
0.186,0.22275,5.898,4.984,63.0,10.81,50.45
0.377,0.114,5.895,4.983,63.0,10.81,50.28
0.127,0.35475,5.894,4.982,63.0,10.81,50.11
-0.024,0.3445,5.892,4.979,66.0,10.81,49.98
-0.015,0.316,5.889,4.979,66.0,10.81,49.84
-0.015,0.362625,5.887,4.977,66.0,10.81,49.59
-0.029,0.347,5.884,4.975,66.0,10.81,49.39
-0.037,0.22275,5.882,4.974,66.0,10.81,49.27
-0.018,0.248625,5.879,4.972,66.0,10.81,49.15
0.0,0.25125,5.878,4.972,66.0,10.81,49.06
-0.001,0.372875,5.875,4.969,66.0,10.81,48.99
-0.065,0.3315,5.873,4.968,66.0,10.81,48.93
0.332,0.271875,5.872,4.967,66.0,10.81,48.88
-0.044,0.4325,5.868,4.963,66.0,10.81,48.81
0.042,0.292625,5.868,4.962,66.0,10.81,48.81
0.149,0.248625,5.864,4.962,66.0,10.81,48.78
0.352,0.155375,5.863,4.96,66.0,10.81,48.77
0.215,0.35475,5.859,4.959,66.0,10.81,48.76
-0.032,0.31075,5.858,4.957,66.0,10.81,48.74
-0.034,0.227875,5.855,4.955,60.0,10.81,48.76
-0.035,0.16575,5.854,4.954,60.0,10.81,48.64
-0.055,0.313375,5.85,4.952,60.0,10.81,48.58
-0.07,0.227875,5.849,4.951,60.0,10.81,48.58
-0.079,0.160625,5.847,4.95,60.0,10.81,48.59
-0.083,0.25375,5.844,4.948,60.0,10.81,48.6
-0.048,0.313375,5.843,4.947,60.0,10.81,48.62
-0.065,0.3885,5.839,4.945,60.0,10.81,48.62
-0.11,0.2745,5.838,4.943,60.0,10.81,48.61
0.3,0.256375,5.837,4.942,60.0,10.81,48.63
-0.102,0.35475,5.834,4.941,60.0,10.81,48.65
0.008,0.25125,5.832,4.94,60.0,10.81,48.68
0.13,0.119125,5.83,4.938,60.0,10.81,48.7
0.318,0.212375,5.828,4.937,60.0,10.81,48.74
0.095,0.362625,5.826,4.935,60.0,10.81,48.73
-0.095,0.31075,5.825,4.933,59.0,10.81,48.73
-0.098,0.163125,5.822,4.932,59.0,10.81,48.73
-0.11,0.227875,5.82,4.93,59.0,10.81,48.62
-0.148,0.196875,5.817,4.928,59.0,10.81,48.62
-0.157,0.196875,5.815,4.927,59.0,10.81,48.77
-0.167,0.160625,5.812,4.926,59.0,10.81,48.99
-0.162,0.202,5.811,4.925,59.0,10.81,49.24
-0.133,0.1165,5.808,4.923,59.0,10.81,49.42
-0.203,0.2745,5.803,4.92,59.0,10.81,49.71
-0.002,0.256375,5.805,4.921,59.0,10.81,49.73
-0.029,0.36775,5.802,4.918,59.0,10.81,49.93
-0.125,0.292625,5.801,4.917,59.0,10.81,50.14
-0.038,0.196875,5.798,4.916,60.0,10.81,50.34
0.137,0.202,5.797,4.915,60.0,10.81,50.54
0.091,0.32625,5.795,4.912,60.0,10.81,50.73
-0.199,0.385875,5.792,4.911,60.0,10.81,50.9
-0.213,0.36,5.79,4.91,60.0,10.81,51.07
-0.212,0.347,5.788,4.907,60.0,10.81,51.19
-0.222,0.02325,5.787,4.907,60.0,10.81,51.32
-0.228,0.02075,5.783,4.906,60.0,10.81,51.5
-0.17,0.32375,5.782,4.905,60.0,10.81,51.67
-0.23,0.398875,5.78,4.902,60.0,10.81,51.81
-0.252,0.303,5.777,4.9,60.0,10.81,51.91
0.167,0.29525,5.776,4.9,60.0,10.81,51.9
-0.157,0.22275,5.773,4.898,60.0,10.81,51.86
-0.079,0.163125,5.772,4.897,60.0,10.81,51.85
0.069,0.02075,5.77,4.895,69.0,10.81,51.86
0.185,0.372875,5.767,4.893,69.0,10.81,51.86
-0.121,0.3755,5.765,4.892,69.0,10.79,51.84
-0.186,0.316,5.763,4.89,69.0,10.79,51.79
-0.176,0.2745,5.762,4.89,69.0,10.79,51.72
-0.183,0.22525,5.76,4.887,69.0,10.79,51.59
-0.185,0.227875,5.757,4.886,69.0,10.79,51.49
-0.13,0.25375,5.755,4.885,69.0,10.79,51.43
-0.16,0.32625,5.752,4.883,69.0,10.79,51.41
-0.188,0.308125,5.75,4.882,69.0,10.79,51.41
0.262,0.269375,5.748,4.88,69.0,10.79,51.36
-0.138,0.35475,5.746,4.878,69.0,10.79,51.26
-0.021,0.3315,5.745,4.877,69.0,10.79,51.2
0.115,0.0285,5.743,4.876,70.0,10.79,51.15
0.041,0.39625,5.74,4.875,70.0,10.79,51.11
-0.04,0.393625,5.739,4.872,70.0,10.79,51.03
-0.103,0.36,5.736,4.871,70.0,10.79,50.93
-0.087,0.328875,5.734,4.87,70.0,10.79,50.79
-0.083,0.404,5.733,4.87,70.0,10.79,50.58
-0.087,0.347,5.728,4.866,70.0,10.79,50.3
-0.084,0.25375,5.729,4.865,70.0,10.79,50.28
-0.056,0.316,5.725,4.865,70.0,10.79,50.18
-0.021,0.414375,5.724,4.862,70.0,10.79,50.12
-0.085,0.292625,5.721,4.862,70.0,10.78,50.02
0.263,0.227875,5.719,4.86,70.0,10.79,49.9
0.014,0.435125,5.718,4.859,70.0,10.78,49.78
0.04,0.378125,5.715,4.858,70.0,10.78,49.67
0.148,0.308125,5.713,4.856,70.0,10.78,49.59
0.35,0.163125,5.711,4.855,70.0,10.79,49.49
0.239,0.36,5.709,4.853,70.0,10.78,49.39
-0.017,0.199375,5.706,4.851,70.0,10.78,49.27
-0.018,0.328875,5.705,4.85,65.0,10.78,49.16
-0.014,0.2305,5.703,4.85,65.0,10.78,48.96
-0.031,0.328875,5.701,4.848,65.0,10.78,48.81
-0.041,0.297875,5.699,4.846,65.0,10.78,48.75
-0.046,0.220125,5.698,4.845,65.0,10.78,48.71
-0.046,0.29,5.695,4.844,65.0,10.78,48.7
-0.018,0.271875,5.693,4.843,65.0,10.78,48.69
-0.007,0.2745,5.69,4.841,65.0,10.78,48.67
-0.059,0.36,5.689,4.84,65.0,10.78,48.66
0.288,0.269375,5.686,4.838,65.0,10.78,48.67
0.016,0.39625,5.684,4.838,65.0,10.78,48.69
0.056,0.3315,5.683,4.835,65.0,10.78,48.7
0.162,0.313375,5.681,4.834,65.0,10.78,48.7
0.354,0.227875,5.679,4.833,65.0,10.78,48.7
0.252,0.308125,5.678,4.831,65.0,10.78,48.69
-0.014,0.2745,5.675,4.83,65.0,10.78,48.69
-0.021,0.284875,5.674,4.829,58.0,10.78,48.69
-0.027,0.25375,5.673,4.828,58.0,10.78,48.59
-0.053,0.25375,5.67,4.825,58.0,10.78,48.53
-0.071,0.227875,5.668,4.824,58.0,10.78,48.55
-0.081,0.2745,5.665,4.823,58.0,10.78,48.61
-0.087,0.277125,5.664,4.823,58.0,10.78,48.8
-0.085,0.25375,5.663,4.82,58.0,10.78,48.97
-0.049,0.284875,5.66,4.819,58.0,10.78,49.12
-0.121,0.362625,5.659,4.818,58.0,10.78,49.27
-0.066,0.308125,5.658,4.816,58.0,10.78,49.46
0.19,0.3445,5.656,4.815,58.0,10.78,49.65
-0.057,0.292625,5.654,4.814,58.0,10.78,49.83
0.015,0.02075,5.653,4.813,58.0,10.78,50.0
0.181,0.02325,5.652,4.81,57.0,10.78,50.18
0.218,0.305625,5.651,4.81,57.0,10.78,50.35
-0.105,0.391,5.648,4.808,57.0,10.78,50.49
-0.148,0.347,5.647,4.808,57.0,10.78,50.63
-0.15,0.362625,5.646,4.805,57.0,10.78,50.71
-0.165,0.25375,5.643,4.804,57.0,10.78,50.8
-0.179,0.199375,5.641,4.803,57.0,10.78,50.94
-0.186,0.313375,5.639,4.801,57.0,10.78,51.09
-0.138,0.202,5.638,4.8,57.0,10.78,51.27
-0.185,0.264125,5.636,4.799,57.0,10.78,51.44
-0.214,0.3445,5.633,4.798,57.0,10.78,51.5
0.209,0.308125,5.632,4.796,57.0,10.78,51.52
-0.147,0.292625,5.631,4.795,57.0,10.78,51.57
-0.061,0.19425,5.628,4.793,57.0,10.78,51.63
0.075,0.2745,5.626,4.793,64.0,10.77,51.68
0.226,0.220125,5.624,4.79,64.0,10.77,51.72
-0.069,0.406625,5.623,4.79,64.0,10.77,51.72
-0.174,0.385875,5.621,4.788,64.0,10.77,51.69
-0.168,0.199375,5.619,4.786,64.0,10.78,51.63
-0.176,0.227875,5.617,4.785,64.0,10.77,51.51
-0.182,0.3885,5.614,4.784,64.0,10.77,51.42
-0.183,0.362625,5.612,4.783,64.0,10.78,51.35
-0.134,0.220125,5.611,4.78,64.0,10.77,51.3
-0.148,0.328875,5.608,4.779,64.0,10.77,51.28
-0.188,0.3315,5.607,4.778,64.0,10.77,51.2
0.273,0.32625,5.606,4.776,64.0,10.77,51.07
-0.165,0.328875,5.603,4.775,64.0,10.77,50.95
-0.038,0.29525,5.601,4.773,64.0,10.77,50.86
0.091,0.202,5.598,4.773,64.0,10.77,50.77
0.291,0.227875,5.597,4.772,64.0,10.77,50.64
0.069,0.271875,5.594,4.771,64.0,10.77,50.49
-0.105,0.271875,5.593,4.768,65.0,10.77,50.3
-0.092,0.308125,5.591,4.767,65.0,10.77,50.15
-0.089,0.29525,5.588,4.766,65.0,10.77,49.92
-0.102,0.3315,5.586,4.766,65.0,10.77,49.73
-0.105,0.328875,5.584,4.764,65.0,10.76,49.6
-0.105,0.26675,5.582,4.763,65.0,10.77,49.47
-0.07,0.3755,5.579,4.761,65.0,10.77,49.38
-0.07,0.372875,5.577,4.759,65.0,10.77,49.27
-0.123,0.292625,5.576,4.758,65.0,10.76,49.15
0.318,0.2875,5.573,4.757,65.0,10.77,49.06
-0.124,0.334125,5.571,4.756,65.0,10.77,49.0
-0.002,0.313375,5.569,4.754,65.0,10.77,48.92
0.113,0.277125,5.568,4.753,65.0,10.76,48.86
0.314,0.155375,5.566,4.751,65.0,10.76,48.82
0.127,0.32625,5.564,4.749,65.0,10.77,48.78
-0.094,0.36,5.562,4.748,62.0,10.77,48.74
-0.088,0.269375,5.561,4.748,62.0,10.77,48.7
-0.088,0.163125,5.559,4.746,62.0,10.76,48.6
-0.108,0.313375,5.556,4.744,62.0,10.76,48.55
-0.121,0.385875,5.555,4.743,62.0,10.76,48.54
-0.126,0.372875,5.552,4.742,62.0,10.77,48.53
-0.126,0.25375,5.551,4.741,62.0,10.76,48.54
-0.075,0.119125,5.549,4.738,62.0,10.76,48.57
-0.118,0.36,5.546,4.737,62.0,10.76,48.58
-0.147,0.292625,5.545,4.736,62.0,10.76,48.58
0.235,0.32625,5.544,4.736,62.0,10.76,48.6
-0.077,0.437625,5.541,4.733,62.0,10.76,48.63
-0.005,0.29,5.539,4.733,62.0,10.76,48.64
0.136,0.018125,5.537,4.731,62.0,10.77,48.64
0.302,0.328875,5.535,4.729,62.0,10.76,48.65
0.007,0.370375,5.534,4.728,62.0,10.76,48.65
-0.118,0.328875,5.531,4.727,59.0,10.76,48.65
-0.108,0.292625,5.529,4.726,59.0,10.76,48.62
-0.119,0.2745,5.529,4.726,59.0,10.76,48.51
-0.143,0.199375,5.526,4.723,59.0,10.76,48.49
-0.154,0.1165,5.524,4.721,59.0,10.76,48.6
-0.171,0.196875,5.522,4.721,59.0,10.76,48.74
-0.171,0.196875,5.52,4.719,59.0,10.76,48.89
-0.13,0.422125,5.519,4.718,59.0,10.76,49.05
-0.182,0.2745,5.516,4.716,59.0,10.76,49.19
-0.216,0.308125,5.515,4.716,59.0,10.76,49.35
0.167,0.328875,5.511,4.713,59.0,10.76,49.77
-0.158,0.334125,5.511,4.713,59.0,10.76,49.8
-0.093,0.199375,5.509,4.711,59.0,10.76,49.98
0.04,0.0285,5.507,4.711,58.0,10.76,50.15
0.182,0.220125,5.506,4.709,58.0,10.76,50.35
-0.116,0.370375,5.504,4.707,58.0,10.76,50.52
-0.227,0.160625,5.501,4.706,58.0,10.76,50.7
-0.221,0.3315,5.5,4.706,58.0,10.76,50.82
-0.232,0.199375,5.499,4.703,58.0,10.76,50.9
-0.236,0.196875,5.496,4.702,58.0,10.76,51.04
-0.237,0.199375,5.494,4.701,58.0,10.76,51.2
-0.178,0.22525,5.492,4.701,58.0,10.76,51.37
-0.236,0.29525,5.49,4.698,58.0,10.76,51.53
-0.256,0.3755,5.486,4.696,58.0,10.76,51.65
0.159,0.292625,5.486,4.696,58.0,10.76,51.66
-0.167,0.29525,5.485,4.696,58.0,10.76,51.71
-0.095,0.119125,5.484,4.693,58.0,10.76,51.78
0.118,0.248625,5.481,4.693,67.0,10.76,51.85
0.114,0.248625,5.48,4.689,67.0,10.76,51.86
-0.143,0.38325,5.478,4.688,67.0,10.76,51.85
-0.212,0.385875,5.475,4.688,67.0,10.76,51.82
-0.209,0.334125,5.474,4.687,67.0,10.76,51.73
-0.218,0.347,5.472,4.685,67.0,10.76,51.51
-0.223,0.328875,5.47,4.685,67.0,10.76,51.51
-0.179,0.372875,5.468,4.684,67.0,10.76,51.43
-0.178,0.372875,5.467,4.682,67.0,10.76,51.4
-0.22,0.414375,5.464,4.681,67.0,10.76,51.35
0.071,0.292625,5.462,4.679,67.0,10.76,51.25
-0.053,0.398875,5.462,4.677,67.0,10.76,51.11
-0.09,0.362625,5.458,4.674,67.0,10.76,50.92
0.02,0.28225,5.457,4.676,68.0,10.76,50.91
0.223,0.163125,5.454,4.674,68.0,10.76,50.84
0.149,0.4325,5.453,4.674,68.0,10.76,50.74
-0.103,0.385875,5.45,4.672,68.0,10.76,50.6
-0.095,0.347,5.449,4.671,68.0,10.76,50.44
-0.075,0.22275,5.448,4.67,68.0,10.76,50.22
-0.077,0.22525,5.445,4.669,68.0,10.76,50.04
-0.076,0.277125,5.443,4.666,68.0,10.76,49.91
-0.071,0.227875,5.442,4.666,68.0,10.76,49.79
-0.063,0.199375,5.439,4.664,68.0,10.76,49.69
0.0,0.32625,5.437,4.662,68.0,10.76,49.6
-0.056,0.32625,5.437,4.661,68.0,10.76,49.45
-0.064,0.297875,5.434,4.659,68.0,10.76,49.32
0.327,0.365125,5.432,4.659,68.0,10.76,49.21
0.033,0.357375,5.43,4.659,68.0,10.76,49.12
0.106,0.22525,5.429,4.656,68.0,10.76,49.03
0.272,0.119125,5.427,4.656,68.0,10.76,48.95
0.398,0.292625,5.424,4.654,68.0,10.76,48.88
0.078,0.409125,5.423,4.654,68.0,10.76,48.81
0.003,0.328875,5.422,4.651,68.0,10.76,48.79
0.021,0.12175,5.419,4.651,68.0,10.76,48.71
0.016,0.292625,5.418,4.649,68.0,10.76,48.59
0.004,0.328875,5.417,4.647,68.0,10.76,48.56
0.0,0.316,5.414,4.646,68.0,10.76,48.57
0.0,0.313375,5.412,4.644,68.0,10.76,48.57
0.01,0.32625,5.41,4.644,68.0,10.76,48.58
0.061,0.2875,5.409,4.641,68.0,10.76,48.58
0.0,0.22525,5.405,4.641,68.0,10.76,48.59
0.032,0.305625,5.403,4.64,68.0,10.76,48.65
0.35,0.32375,5.403,4.639,68.0,10.76,48.65
0.089,0.313375,5.402,4.637,68.0,10.76,48.66
0.169,0.227875,5.399,4.636,68.0,10.76,48.65
0.343,0.114,5.398,4.636,68.0,10.76,48.67
0.413,0.32625,5.397,4.634,68.0,10.76,48.68
0.088,0.393625,5.394,4.632,68.0,10.76,48.68
0.041,0.372875,5.393,4.631,68.0,10.76,48.68
0.056,0.22275,5.392,4.63,68.0,10.76,48.62
0.042,0.02075,5.39,4.629,68.0,10.76,48.53
0.025,0.1165,5.387,4.627,68.0,10.76,48.57
0.019,0.227875,5.387,4.626,68.0,10.76,48.68
0.014,0.246,5.385,4.625,68.0,10.76,48.75
0.012,0.328875,5.382,4.624,68.0,10.76,48.81
0.058,0.02325,5.381,4.622,68.0,10.76,48.91
-0.009,0.246,5.38,4.621,68.0,10.76,49.05
-0.024,0.357375,5.377,4.62,68.0,10.76,49.19
0.33,0.300375,5.376,4.619,68.0,10.76,49.36
0.039,0.357375,5.375,4.617,68.0,10.76,49.51
0.098,0.248625,5.372,4.616,68.0,10.76,49.65
0.242,0.02075,5.37,4.614,68.0,10.76,49.81
0.335,0.261625,5.37,4.614,68.0,10.76,49.97
0.007,0.220125,5.367,4.612,68.0,10.76,50.09
-0.065,0.196875,5.366,4.611,57.0,10.76,50.22
-0.064,0.199375,5.365,4.609,57.0,10.76,50.3
-0.085,0.29,5.362,4.609,57.0,10.76,50.37
-0.101,0.3445,5.361,4.607,57.0,10.76,50.5
-0.11,0.32625,5.358,4.606,57.0,10.76,50.65
-0.066,0.163125,5.357,4.604,57.0,10.76,50.8
-0.099,0.29,5.356,4.604,57.0,10.76,50.96
-0.133,0.365125,5.353,4.601,57.0,10.76,51.04
0.279,0.271875,5.352,4.601,57.0,10.76,51.11
-0.096,0.269375,5.35,4.6,57.0,10.76,51.21
0.001,0.227875,5.348,4.599,57.0,10.76,51.34
0.126,0.163125,5.347,4.597,57.0,10.76,51.46
0.287,0.215,5.346,4.597,57.0,10.76,51.53
0.02,0.38325,5.343,4.595,57.0,10.76,51.57
-0.1,0.409125,5.342,4.594,57.0,10.76,51.57
-0.088,0.269375,5.34,4.593,57.0,10.76,51.53
-0.092,0.227875,5.338,4.592,57.0,10.76,51.42
-0.094,0.3445,5.337,4.59,57.0,10.76,51.31
-0.085,0.316,5.335,4.589,57.0,10.76,51.23
-0.013,0.36,5.333,4.588,57.0,10.76,51.16
-0.074,0.3755,5.331,4.585,57.0,10.76,51.09
0.191,0.313375,5.33,4.585,57.0,10.76,50.96
0.215,0.313375,5.327,4.584,57.0,10.76,50.76
0.022,0.3445,5.326,4.582,57.0,10.76,50.57
0.099,0.199375,5.325,4.582,57.0,10.76,50.42
0.266,0.1165,5.322,4.58,57.0,10.76,50.31
0.371,0.3315,5.321,4.578,57.0,10.76,50.04
0.051,0.385875,5.321,4.577,57.0,10.76,50.02
-0.007,0.401375,5.317,4.577,72.0,10.76,49.9
0.008,0.349625,5.315,4.575,72.0,10.76,49.72
0.0,0.12425,5.315,4.574,72.0,10.74,49.5
-0.012,0.227875,5.312,4.573,72.0,10.76,49.36
-0.017,0.163125,5.31,4.572,72.0,10.74,49.27
-0.017,0.32375,5.308,4.569,72.0,10.76,49.17
0.045,0.378125,5.306,4.569,72.0,10.74,49.11
-0.007,0.35475,5.305,4.568,72.0,10.74,49.01
-0.032,0.321125,5.304,4.567,72.0,10.74,48.92
0.348,0.28225,5.303,4.565,72.0,10.74,48.85
0.053,0.313375,5.3,4.564,72.0,10.74,48.82
0.117,0.163125,5.298,4.562,72.0,10.74,48.79
0.263,0.16575,5.298,4.562,72.0,10.74,48.79
0.41,0.305625,5.295,4.559,72.0,10.74,48.77
0.099,0.3755,5.294,4.559,72.0,10.74,48.75
-0.005,0.2745,5.293,4.558,57.0,10.74,48.74
0.001,0.31075,5.29,4.557,57.0,10.74,48.69
-0.009,0.19425,5.289,4.554,57.0,10.74,48.59
-0.028,0.33925,5.286,4.554,57.0,10.74,48.58
-0.038,0.057,5.285,4.552,57.0,10.74,48.59
-0.042,0.248625,5.283,4.552,57.0,10.73,48.59
-0.022,0.308125,5.281,4.549,57.0,10.74,48.6
0.002,0.29,5.28,4.549,57.0,10.74,48.61
-0.064,0.248625,5.279,4.547,57.0,10.74,48.63
0.24,0.31075,5.278,4.547,57.0,10.76,48.64
0.012,0.3885,5.275,4.545,57.0,10.76,48.68
0.013,0.25125,5.274,4.544,57.0,10.76,48.72
0.099,0.114,5.273,4.543,57.0,10.76,48.84
0.156,0.36775,5.27,4.542,57.0,10.76,49.02
0.097,0.36775,5.269,4.542,60.0,10.76,49.16
-0.092,0.313375,5.268,4.539,60.0,10.76,49.3
-0.107,0.35475,5.265,4.539,60.0,10.76,49.44
-0.113,0.145,5.264,4.537,60.0,10.76,49.5
-0.139,0.31075,5.26,4.535,60.0,10.74,49.74
-0.156,0.196875,5.26,4.534,60.0,10.76,49.75
-0.165,0.114,5.258,4.534,60.0,10.74,49.9
-0.111,0.202,5.258,4.532,60.0,10.74,50.09
-0.182,0.196875,5.256,4.532,60.0,10.74,50.24
-0.203,0.33925,5.255,4.529,60.0,10.73,50.34
0.178,0.269375,5.253,4.528,60.0,10.74,50.43
-0.126,0.199375,5.251,4.527,60.0,10.73,50.56
-0.056,0.02075,5.25,4.527,60.0,10.74,50.71
0.09,0.196875,5.248,4.524,64.0,10.74,50.87
-0.065,0.409125,5.245,4.524,64.0,10.74,51.03
-0.158,0.406625,5.245,4.524,64.0,10.74,51.16
-0.18,0.233125,5.243,4.522,64.0,10.74,51.28
-0.174,0.018125,5.241,4.522,64.0,10.74,51.34
-0.184,0.1865,5.24,4.519,64.0,10.74,51.38
-0.189,0.316,5.236,4.515,64.0,10.74,51.56
-0.15,0.248625,5.236,4.517,64.0,10.74,51.57
-0.161,0.347,5.235,4.517,64.0,10.74,51.65
-0.209,0.271875,5.233,4.515,64.0,10.74,51.73
0.239,0.292625,5.231,4.514,64.0,10.74,51.7
-0.202,0.334125,5.23,4.512,64.0,10.74,51.65
-0.076,0.2175,5.228,4.512,64.0,10.74,51.64
0.041,0.160625,5.228,4.509,69.0,10.74,51.65
0.221,0.25125,5.225,4.509,69.0,10.76,51.68
0.012,0.33925,5.224,4.507,69.0,10.76,51.68
-0.153,0.321125,5.221,4.507,69.0,10.76,51.66
-0.141,0.256375,5.22,4.505,69.0,10.76,51.6
-0.144,0.347,5.219,4.505,69.0,10.76,51.46
-0.148,0.308125,5.218,4.503,69.0,10.76,51.31
-0.147,0.25375,5.215,4.502,69.0,10.76,51.22
-0.078,0.199375,5.213,4.502,69.0,10.76,51.15
-0.134,0.3445,5.212,4.5,69.0,10.76,51.11
-0.154,0.29,5.211,4.5,69.0,10.76,51.02
0.265,0.277125,5.209,4.497,69.0,10.76,50.86
-0.061,0.328875,5.208,4.497,69.0,10.76,50.71
0.017,0.370375,5.206,4.496,69.0,10.76,50.58
0.165,0.1165,5.204,4.495,67.0,10.76,50.44
0.314,0.29,5.203,4.493,67.0,10.76,50.29
0.012,0.35475,5.201,4.492,67.0,10.76,50.14
-0.083,0.3885,5.199,4.491,67.0,10.76,50.0
-0.066,0.3445,5.198,4.49,67.0,10.74,49.83
-0.075,0.347,5.196,4.488,67.0,10.74,49.6
-0.086,0.2745,5.194,4.487,67.0,10.74,49.44
-0.088,0.25125,5.192,4.487,67.0,10.76,49.33
-0.086,0.378125,5.191,4.486,67.0,10.76,49.23
-0.08,0.1165,5.188,4.485,67.0,10.74,49.17
-0.021,0.2175,5.187,4.483,67.0,10.74,49.09
-0.076,0.32625,5.186,4.482,67.0,10.74,48.99
-0.091,0.35475,5.183,4.481,67.0,10.74,48.91
0.292,0.297875,5.182,4.48,67.0,10.74,48.86
0.002,0.3315,5.181,4.478,67.0,10.76,48.81
0.068,0.334125,5.179,4.477,67.0,10.76,48.78
0.22,0.025875,5.178,4.477,67.0,10.76,48.75
0.353,0.27975,5.176,4.476,67.0,10.76,48.73
0.04,0.36,5.174,4.475,67.0,10.73,48.7
-0.045,0.22525,5.173,4.472,58.0,10.73,48.71
-0.032,0.31075,5.171,4.472,58.0,10.73,48.66
-0.043,0.385875,5.171,4.47,58.0,10.73,48.56
-0.055,0.199375,5.168,4.47,58.0,10.73,48.54
-0.061,0.292625,5.167,4.468,58.0,10.73,48.55
-0.06,0.2305,5.166,4.467,58.0,10.73,48.55
-0.058,0.2745,5.163,4.465,58.0,10.72,48.58
-0.019,0.277125,5.162,4.465,58.0,10.73,48.58
-0.038,0.328875,5.161,4.462,58.0,10.73,48.59
-0.08,0.269375,5.159,4.462,58.0,10.71,48.6
0.331,0.261625,5.158,4.462,58.0,10.72,48.66
-0.077,0.31075,5.156,4.46,58.0,10.71,48.73
0.122,0.163125,5.154,4.46,58.0,10.72,48.85
0.183,0.163125,5.153,4.457,58.0,10.71,49.01
0.32,0.199375,5.151,4.457,58.0,10.72,49.19
0.103,0.35225,5.149,4.455,58.0,10.72,49.34
-0.093,0.370375,5.148,4.455,57.0,10.72,49.51
-0.088,0.3315,5.144,4.452,57.0,10.72,49.74
-0.096,0.1165,5.144,4.452,57.0,10.72,49.76
-0.111,0.025875,5.143,4.451,57.0,10.72,49.88
-0.116,0.1165,5.143,4.45,57.0,10.72,50.04
-0.116,0.1165,5.141,4.448,57.0,10.72,50.2
-0.108,0.292625,5.139,4.447,57.0,10.73,50.41
-0.058,0.269375,5.138,4.447,57.0,10.72,50.55
-0.123,0.341875,5.137,4.446,57.0,10.73,50.62
-0.09,0.227875,5.134,4.442,57.0,10.73,50.87
0.222,0.308125,5.133,4.442,57.0,10.73,50.89
0.016,0.313375,5.131,4.442,57.0,10.73,51.04
0.055,0.313375,5.129,4.44,57.0,10.73,51.18
0.188,0.02325,5.128,4.44,57.0,10.73,51.32
0.242,0.334125,5.127,4.438,57.0,10.73,51.46
-0.073,0.269375,5.125,4.437,57.0,10.73,51.56
-0.113,0.248625,5.122,4.436,59.0,10.72,51.68
-0.112,0.292625,5.121,4.436,59.0,10.73,51.68
-0.125,0.347,5.121,4.435,59.0,10.74,51.69
-0.134,0.362625,5.12,4.433,59.0,10.74,51.74
-0.084,0.163125,5.119,4.432,59.0,10.76,51.77
-0.076,0.160625,5.116,4.43,59.0,10.76,51.84
-0.136,0.36,5.115,4.43,59.0,10.74,51.89
-0.159,0.341875,5.114,4.427,59.0,10.74,51.84
0.258,0.25375,5.111,4.426,59.0,10.72,51.8
-0.067,0.334125,5.109,4.422,59.0,10.73,51.83
0.002,0.32625,5.109,4.423,59.0,10.73,51.84
0.148,0.1165,5.106,4.423,59.0,10.73,51.88
0.266,0.308125,5.106,4.422,59.0,10.73,51.92
-0.052,0.36775,5.104,4.421,59.0,10.73,51.91
-0.127,0.36,5.102,4.42,65.0,10.73,51.91
-0.124,0.26675,5.101,4.42,65.0,10.73,51.86
-0.136,0.19425,5.099,4.418,65.0,10.74,51.76
-0.145,0.3445,5.097,4.418,65.0,10.76,51.69
-0.143,0.196875,5.096,4.415,65.0,10.74,51.64
-0.084,0.277125,5.094,4.415,65.0,10.73,51.63
-0.158,0.372875,5.092,4.413,65.0,10.72,51.6
-0.155,0.305625,5.091,4.413,65.0,10.72,51.49
0.229,0.321125,5.089,4.411,65.0,10.71,51.34
-0.079,0.31075,5.089,4.41,65.0,10.7,51.24
-0.003,0.163125,5.086,4.41,65.0,10.7,51.19
0.164,0.25375,5.085,4.408,67.0,10.7,51.14
0.24,0.28225,5.084,4.406,67.0,10.68,51.07
-0.087,0.36775,5.082,4.405,67.0,10.71,50.98
-0.133,0.308125,5.081,4.405,67.0,10.7,50.87
-0.12,0.163125,5.079,4.404,67.0,10.71,50.69
-0.129,0.2745,5.077,4.403,67.0,10.71,50.5
-0.138,0.22275,5.076,4.401,67.0,10.71,50.35
-0.14,0.19425,5.074,4.4,67.0,10.71,50.22
-0.138,0.33925,5.074,4.398,67.0,10.71,50.14
-0.109,0.341875,5.071,4.398,67.0,10.72,50.1
-0.086,0.328875,5.07,4.396,67.0,10.72,49.98
-0.146,0.271875,5.067,4.395,67.0,10.72,49.88
0.262,0.277125,5.066,4.395,67.0,10.72,49.8
-0.11,0.3315,5.065,4.394,67.0,10.72,49.71
-0.033,0.3885,5.064,4.393,67.0,10.72,49.62
0.067,0.391,5.061,4.391,67.0,10.72,49.54
0.256,0.284875,5.061,4.39,67.0,10.72,49.47
0.132,0.385875,5.059,4.39,67.0,10.72,49.42
-0.124,0.16575,5.057,4.388,59.0,10.73,49.36
-0.124,0.248625,5.056,4.386,59.0,10.73,49.27
-0.124,0.29,5.055,4.385,59.0,10.72,49.09
-0.138,0.22525,5.054,4.385,59.0,10.73,48.95
-0.145,0.347,5.052,4.384,59.0,10.73,48.89
-0.147,0.365125,5.05,4.383,59.0,10.73,48.83
-0.142,0.385875,5.049,4.38,59.0,10.73,48.8
-0.104,0.4195,5.046,4.38,59.0,10.72,48.77
-0.108,0.347,5.045,4.379,59.0,10.73,48.75
-0.151,0.204625,5.044,4.378,59.0,10.72,48.73
0.278,0.248625,5.042,4.378,59.0,10.72,48.72
-0.138,0.372875,5.041,4.375,59.0,10.72,48.72
-0.024,0.119125,5.039,4.375,59.0,10.72,48.72
0.097,0.119125,5.039,4.374,59.0,10.72,48.72
0.289,0.191625,5.037,4.373,59.0,10.72,48.72
0.076,0.38075,5.037,4.373,59.0,10.72,48.72
-0.105,0.2305,5.034,4.37,58.0,10.72,48.71
-0.104,0.227875,5.033,4.37,58.0,10.72,48.7
-0.112,0.114,5.032,4.369,58.0,10.72,48.59
-0.131,0.313375,5.03,4.366,58.0,10.72,48.6
-0.141,0.160625,5.028,4.365,58.0,10.71,48.75
-0.144,0.22525,5.027,4.364,58.0,10.72,49.09
-0.144,0.22525,5.025,4.363,58.0,10.72,49.11
-0.115,0.25125,5.024,4.363,58.0,10.72,49.27
-0.106,0.2435,5.023,4.36,58.0,10.72,49.41
-0.157,0.132125,5.022,4.36,58.0,10.72,49.56
0.272,0.313375,5.019,4.359,58.0,10.72,49.72
-0.157,0.39625,5.019,4.358,58.0,10.72,49.89
-0.037,0.1295,5.018,4.358,58.0,10.72,50.05
0.07,0.114,5.017,4.355,58.0,10.72,50.2
0.255,0.196875,5.014,4.355,58.0,10.72,50.35
0.086,0.372875,5.013,4.353,58.0,10.72,50.5
-0.13,0.33925,5.012,4.353,58.0,10.71,50.63
-0.129,0.199375,5.012,4.35,58.0,10.72,50.72
-0.134,0.25125,5.009,4.35,58.0,10.72,50.78
-0.149,0.27975,5.007,4.349,58.0,10.72,50.89
-0.155,0.248625,5.007,4.348,58.0,10.72,51.03
-0.145,0.25375,5.004,4.348,58.0,10.72,51.19
-0.099,0.155375,5.004,4.345,58.0,10.72,51.36
0.041,0.292625,5.002,4.345,58.0,10.72,51.48
0.262,0.300375,5.0,4.344,58.0,10.72,51.53
0.044,0.385875,4.999,4.343,58.0,10.72,51.59
-0.063,0.36,4.997,4.341,70.0,10.72,51.67
0.028,0.196875,4.995,4.34,70.0,10.72,51.77
0.209,0.196875,4.992,4.339,70.0,10.72,51.9
0.17,0.3185,4.993,4.338,70.0,10.72,51.91
-0.117,0.362625,4.992,4.338,70.0,10.71,51.95
-0.133,0.341875,4.989,4.335,70.0,10.72,51.99
-0.134,0.372875,4.989,4.335,70.0,10.72,51.97
-0.149,0.2745,4.987,4.334,70.0,10.71,51.96
-0.157,0.2305,4.985,4.333,70.0,10.71,51.99
-0.1,0.2745,4.984,4.332,70.0,10.72,52.03
-0.16,0.25125,4.982,4.331,70.0,10.72,52.09
-0.188,0.341875,4.982,4.331,70.0,10.71,52.11
0.245,0.28225,4.979,4.329,70.0,10.71,52.09
-0.043,0.1735,4.978,4.328,70.0,10.71,52.05
0.001,0.16575,4.977,4.327,70.0,10.72,52.08
0.12,0.018125,4.977,4.326,64.0,10.71,52.15
0.254,0.26675,4.974,4.324,64.0,10.72,52.2
-0.059,0.35225,4.973,4.323,64.0,10.71,52.22
-0.148,0.328875,4.969,4.322,64.0,10.71,52.18
-0.142,0.22525,4.969,4.321,64.0,10.71,52.17
-0.145,0.25125,4.969,4.321,64.0,10.71,52.12
-0.149,0.316,4.967,4.321,64.0,10.72,52.08
-0.097,0.370375,4.965,4.318,64.0,10.71,52.04
-0.096,0.370375,4.964,4.317,64.0,10.71,52.02
-0.145,0.35475,4.963,4.316,64.0,10.71,51.99
0.069,0.277125,4.962,4.316,64.0,10.71,51.9
0.117,0.38075,4.959,4.314,64.0,10.72,51.77
-0.016,0.044,4.957,4.313,64.0,10.71,51.63
0.085,0.158,4.957,4.312,64.0,10.71,51.62
0.279,0.199375,4.957,4.311,64.0,10.71,51.56
0.245,0.35225,4.954,4.311,64.0,10.71,51.48
-0.033,0.38325,4.954,4.309,64.0,10.71,51.35
-0.032,0.401375,4.952,4.308,68.0,10.71,51.21
-0.009,0.271875,4.952,4.307,68.0,10.71,51.01
-0.007,0.316,4.95,4.306,68.0,10.71,50.79
-0.009,0.22525,4.948,4.306,68.0,10.71,50.65
-0.004,0.277125,4.947,4.303,68.0,10.71,50.51
0.004,0.29525,4.945,4.303,68.0,10.71,50.41
0.068,0.264125,4.945,4.303,68.0,10.71,50.28
0.004,0.36,4.942,4.301,68.0,10.71,50.1
0.007,0.328875,4.94,4.301,68.0,10.71,49.92
0.399,0.308125,4.94,4.298,68.0,10.71,49.79
0.093,0.393625,4.937,4.298,68.0,10.71,49.66
0.164,0.32625,4.936,4.296,68.0,10.71,49.54
0.333,0.25125,4.935,4.296,68.0,10.71,49.43
0.432,0.372875,4.933,4.294,68.0,10.71,49.33
0.103,0.36775,4.932,4.293,68.0,10.71,49.22
0.04,0.31075,4.931,4.293,68.0,10.71,49.12
0.048,0.29,4.93,4.292,68.0,10.71,48.97
0.033,0.22275,4.928,4.291,68.0,10.71,48.8
0.019,0.1165,4.927,4.289,68.0,10.71,48.73
0.017,0.19425,4.925,4.288,68.0,10.71,48.71
0.016,0.277125,4.925,4.288,68.0,10.71,48.7
0.02,0.227875,4.922,4.286,68.0,10.71,48.7
0.034,0.308125,4.922,4.286,68.0,10.71,48.69
0.075,0.33925,4.92,4.283,68.0,10.71,48.69
0.01,0.336625,4.92,4.283,68.0,10.71,48.7
0.197,0.25375,4.917,4.282,68.0,10.71,48.71
0.241,0.29525,4.916,4.281,68.0,10.71,48.74
0.116,0.163125,4.915,4.281,60.0,10.71,48.72
0.202,0.02325,4.912,4.278,60.0,10.71,48.73
0.377,0.246,4.912,4.278,60.0,10.71,48.74
0.358,0.38075,4.911,4.278,60.0,10.71,48.73
0.039,0.336625,4.91,4.276,60.0,10.71,48.71
0.01,0.163125,4.908,4.276,60.0,10.71,48.78
-0.01,0.2745,4.907,4.273,44.0,10.71,48.85
-0.02,0.277125,4.905,4.273,44.0,10.71,48.94
-0.032,0.19425,4.905,4.271,44.0,10.71,49.15
-0.045,0.018125,4.902,4.271,44.0,10.71,49.36
-0.053,0.163125,4.9,4.268,44.0,10.71,49.58
-0.034,0.334125,4.897,4.268,44.0,10.71,49.88
-0.037,0.31075,4.897,4.268,44.0,10.71,49.89
0.344,0.264125,4.897,4.266,44.0,10.71,50.01
0.306,0.269375,4.896,4.266,44.0,10.71,50.19
-0.1,0.3315,4.895,4.263,44.0,10.71,50.38
0.012,0.22275,4.892,4.263,44.0,10.71,50.56
0.112,0.018125,4.892,4.263,44.0,10.71,50.73
0.29,0.1165,4.888,4.261,44.0,10.71,51.05
0.108,0.36775,4.89,4.261,44.0,10.71,51.07
-0.099,0.365125,4.887,4.259,44.0,10.71,51.21
-0.098,0.347,4.887,4.258,44.0,10.71,51.34
-0.101,0.271875,4.885,4.257,44.0,10.71,51.41
-0.114,0.349625,4.885,4.256,44.0,10.71,51.53
-0.121,0.334125,4.882,4.256,44.0,10.71,51.66
-0.076,0.3445,4.881,4.254,44.0,10.7,51.78
-0.106,0.199375,4.88,4.253,44.0,10.71,51.89
-0.145,0.29525,4.877,4.252,44.0,10.7,51.94
0.291,0.2745,4.877,4.251,44.0,10.7,51.91
-0.101,0.300375,4.875,4.251,44.0,10.7,51.92
0.001,0.32375,4.875,4.248,44.0,10.7,51.97
0.125,0.316,4.872,4.248,44.0,10.7,52.03
0.293,0.271875,4.871,4.248,44.0,10.7,52.07
0.021,0.357375,4.87,4.246,44.0,10.7,52.09
-0.109,0.313375,4.867,4.246,44.0,10.7,52.09
-0.11,0.160625,4.867,4.244,44.0,10.7,52.07
-0.113,0.160625,4.865,4.244,44.0,10.7,51.99
-0.117,0.308125,4.865,4.244,44.0,10.7,51.94
-0.097,0.269375,4.862,4.241,44.0,10.7,51.91
-0.066,0.35475,4.861,4.241,44.0,10.7,51.9
-0.136,0.357375,4.858,4.237,44.0,10.7,51.84
0.243,0.29525,4.859,4.237,44.0,10.7,51.84
-0.05,0.341875,4.858,4.236,44.0,10.7,51.73
-0.008,0.3445,4.856,4.235,44.0,10.7,51.67
0.097,0.018125,4.855,4.234,44.0,10.7,51.62
0.292,0.2305,4.853,4.234,44.0,10.7,51.57
0.178,0.349625,4.853,4.234,44.0,10.7,51.49
-0.061,0.313375,4.85,4.232,44.0,10.7,51.37
-0.053,0.02075,4.85,4.231,44.0,10.7,51.23
-0.047,0.31075,4.848,4.23,44.0,10.7,51.02
-0.049,0.163125,4.846,4.229,44.0,10.7,50.8
-0.044,0.220125,4.845,4.229,44.0,10.7,50.66
-0.038,0.385875,4.843,4.227,44.0,10.68,50.54
0.031,0.264125,4.843,4.226,44.0,10.7,50.48
-0.013,0.313375,4.84,4.225,44.0,10.68,50.39
-0.036,0.341875,4.839,4.224,44.0,10.7,50.23
0.381,0.246,4.838,4.224,44.0,10.68,50.08
0.063,0.401375,4.836,4.221,44.0,10.68,49.97
0.132,0.2745,4.835,4.221,44.0,10.68,49.87
0.284,0.119125,4.833,4.22,44.0,10.68,49.76
0.44,0.22525,4.833,4.219,44.0,10.7,49.66
0.136,0.39625,4.83,4.219,44.0,10.68,49.52
0.032,0.32625,4.829,4.216,63.0,10.7,49.4
0.046,0.271875,4.828,4.216,63.0,10.68,49.23
0.037,0.316,4.826,4.214,63.0,10.68,48.99
0.024,0.347,4.825,4.214,63.0,10.68,48.86
0.016,0.22525,4.824,4.214,63.0,10.68,48.79
0.015,0.277125,4.823,4.212,63.0,10.68,48.74
0.019,0.2875,4.821,4.211,63.0,10.7,48.71
0.038,0.069875,4.82,4.211,63.0,10.68,48.69
0.07,0.2875,4.818,4.209,63.0,10.68,48.67
0.008,0.3315,4.818,4.209,63.0,10.68,48.65
0.258,0.2745,4.816,4.207,63.0,10.68,48.66
0.171,0.38325,4.815,4.206,63.0,10.68,48.66
0.111,0.341875,4.813,4.206,63.0,10.68,48.65
0.201,0.119125,4.813,4.204,63.0,10.68,48.65
0.385,0.02075,4.81,4.204,63.0,10.68,48.65
0.35,0.341875,4.81,4.201,63.0,10.68,48.64
0.047,0.38075,4.808,4.201,63.0,10.68,48.63
0.029,0.303,4.806,4.199,56.0,10.68,48.63
0.028,0.271875,4.805,4.199,56.0,10.68,48.54
0.009,0.36775,4.804,4.199,56.0,10.68,48.48
-0.006,0.29,4.803,4.197,56.0,10.68,48.49
-0.018,0.25125,4.801,4.196,56.0,10.68,48.51
-0.025,0.2745,4.8,4.195,56.0,10.68,48.53
-0.026,0.199375,4.798,4.194,56.0,10.68,48.54
0.0,0.347,4.798,4.194,56.0,10.68,48.55
-0.077,0.199375,4.795,4.192,56.0,10.68,48.64
0.134,0.233125,4.795,4.191,56.0,10.68,48.86
0.08,0.328875,4.793,4.191,56.0,10.68,49.07
-0.007,0.25125,4.793,4.189,56.0,10.68,49.26
0.076,0.163125,4.79,4.189,58.0,10.68,49.45
0.247,0.025875,4.79,4.186,58.0,10.68,49.64
0.214,0.36775,4.788,4.186,58.0,10.68,49.82
-0.091,0.38075,4.788,4.186,58.0,10.68,49.99
-0.113,0.2745,4.786,4.184,58.0,10.68,50.15
-0.116,0.163125,4.785,4.184,58.0,10.68,50.22
-0.135,0.196875,4.783,4.182,58.0,10.68,50.35
-0.147,0.321125,4.781,4.181,58.0,10.68,50.51
-0.151,0.2745,4.78,4.18,58.0,10.68,50.69
-0.105,0.202,4.78,4.179,58.0,10.68,50.88
-0.145,0.292625,4.778,4.179,58.0,10.68,51.03
-0.179,0.31075,4.778,4.176,58.0,10.68,51.11
0.237,0.26675,4.775,4.176,58.0,10.68,51.2
-0.121,0.313375,4.774,4.175,58.0,10.68,51.33
-0.039,0.25375,4.773,4.174,58.0,10.68,51.5
0.09,0.02325,4.772,4.174,64.0,10.68,51.64
0.247,0.256375,4.771,4.174,64.0,10.68,51.76
-0.034,0.398875,4.769,4.171,64.0,10.68,51.85
-0.145,0.3885,4.768,4.171,64.0,10.68,51.92
-0.144,0.248625,4.767,4.169,64.0,10.68,51.97
-0.156,0.308125,4.766,4.169,64.0,10.68,51.96
-0.159,0.292625,4.764,4.167,64.0,10.68,51.98
-0.133,0.29,4.763,4.166,64.0,10.68,52.02
-0.119,0.3755,4.762,4.166,64.0,10.68,52.08
-0.181,0.365125,4.761,4.165,64.0,10.68,52.13
0.256,0.246,4.759,4.164,64.0,10.68,52.12
-0.149,0.36,4.758,4.162,64.0,10.68,52.05
-0.054,0.3315,4.756,4.161,64.0,10.68,52.01
0.049,0.038875,4.756,4.16,69.0,10.68,52.04
0.239,0.02075,4.754,4.161,69.0,10.68,52.08
0.083,0.370375,4.753,4.159,69.0,10.68,52.11
-0.145,0.391,4.752,4.159,69.0,10.68,52.09
-0.141,0.303,4.751,4.156,69.0,10.68,52.08
-0.141,0.370375,4.749,4.156,69.0,10.68,52.0
-0.147,0.29525,4.748,4.156,69.0,10.68,51.94
-0.144,0.2305,4.746,4.154,69.0,10.68,51.91
-0.078,0.22275,4.746,4.154,69.0,10.67,51.89
-0.146,0.313375,4.744,4.153,69.0,10.67,51.88
-0.159,0.32375,4.743,4.152,69.0,10.67,51.82
0.273,0.308125,4.741,4.152,69.0,10.67,51.74
-0.058,0.3445,4.741,4.149,69.0,10.67,51.65
0.021,0.2435,4.738,4.149,69.0,10.67,51.59
0.18,0.025875,4.738,4.148,68.0,10.67,51.55
0.291,0.29,4.736,4.147,68.0,10.67,51.48
-0.024,0.391,4.736,4.147,68.0,10.67,51.36
-0.089,0.341875,4.734,4.144,68.0,10.67,51.23
-0.074,0.271875,4.733,4.144,68.0,10.67,51.07
-0.075,0.3315,4.732,4.143,68.0,10.67,50.87
-0.064,0.22525,4.731,4.142,68.0,10.67,50.7
-0.053,0.31075,4.728,4.142,68.0,10.67,50.59
-0.045,0.29,4.728,4.139,68.0,10.67,50.5
-0.011,0.196875,4.726,4.139,68.0,10.67,50.42
0.009,0.36,4.726,4.139,68.0,10.67,50.28
-0.052,0.328875,4.723,4.137,68.0,10.67,50.13
0.353,0.27975,4.723,4.137,68.0,10.67,50.01
-0.004,0.3885,4.721,4.137,68.0,10.67,49.94
0.067,0.38075,4.719,4.134,68.0,10.67,49.86
0.178,0.3185,4.718,4.134,68.0,10.67,49.76
0.374,0.119125,4.717,4.133,68.0,10.67,49.68
0.266,0.3885,4.716,4.132,68.0,10.67,49.59
0.009,0.303,4.714,4.132,68.0,10.67,49.5
0.011,0.31075,4.713,4.13,60.0,10.67,49.41
0.013,0.271875,4.713,4.129,60.0,10.67,49.21
0.0,0.284875,4.711,4.128,60.0,10.67,49.07
-0.006,0.347,4.711,4.127,60.0,10.67,49.02
-0.008,0.3445,4.708,4.127,60.0,10.67,48.95
-0.007,0.3885,4.708,4.124,60.0,10.67,48.91
0.002,0.297875,4.706,4.124,60.0,10.67,48.86
0.049,0.163125,4.706,4.123,60.0,10.67,48.8
-0.015,0.1165,4.703,4.122,60.0,10.67,48.75
0.05,0.27975,4.702,4.122,60.0,10.67,48.74
0.302,0.3445,4.701,4.12,60.0,10.67,48.74
0.069,0.31075,4.701,4.119,60.0,10.67,48.74
0.151,0.2305,4.699,4.119,60.0,10.67,48.72
0.316,0.163125,4.698,4.119,60.0,10.67,48.72
0.362,0.27975,4.696,4.117,60.0,10.67,48.71
0.03,0.404,4.696,4.117,60.0,10.66,48.7
-0.018,0.227875,4.694,4.115,57.0,10.67,48.71
-0.017,0.196875,4.693,4.114,57.0,10.66,48.72
-0.041,0.305625,4.692,4.113,57.0,10.67,48.74
-0.057,0.269375,4.691,4.112,57.0,10.67,48.89
-0.068,0.227875,4.689,4.112,57.0,10.66,49.04
-0.075,0.031125,4.688,4.11,57.0,10.66,49.19
-0.074,0.248625,4.687,4.109,57.0,10.67,49.32
-0.039,0.334125,4.686,4.109,57.0,10.67,49.42
-0.114,0.313375,4.685,4.108,57.0,10.66,49.53
0.02,0.227875,4.684,4.107,57.0,10.67,49.66
0.116,0.36,4.682,4.107,57.0,10.66,49.83
-0.056,0.404,4.681,4.105,57.0,10.66,49.99
0.018,0.1165,4.681,4.104,58.0,10.66,50.15
0.182,0.02075,4.679,4.104,58.0,10.67,50.3
0.179,0.29525,4.679,4.102,58.0,10.67,50.44
-0.14,0.398875,4.676,4.102,58.0,10.66,50.56
-0.177,0.27975,4.676,4.1,58.0,10.66,50.69
-0.181,0.19425,4.674,4.099,58.0,10.66,50.74
-0.198,0.163125,4.674,4.098,58.0,10.67,50.82
-0.209,0.341875,4.672,4.098,58.0,10.66,50.98
-0.215,0.385875,4.671,4.097,58.0,10.66,51.13
-0.163,0.404,4.669,4.097,58.0,10.66,51.32
-0.211,0.2745,4.669,4.094,58.0,10.66,51.46
-0.241,0.370375,4.666,4.094,58.0,10.66,51.51
0.178,0.269375,4.666,4.093,58.0,10.67,51.54
-0.166,0.3315,4.665,4.092,58.0,10.66,51.61
-0.091,0.248625,4.664,4.092,58.0,10.66,51.72
0.041,0.1165,4.662,4.092,64.0,10.66,51.83
0.188,0.284875,4.661,4.089,64.0,10.67,51.91
-0.116,0.391,4.66,4.089,64.0,10.67,51.98
-0.223,0.41175,4.659,4.089,64.0,10.66,52.05
-0.223,0.16575,4.659,4.087,64.0,10.66,52.09
-0.234,0.25375,4.656,4.087,64.0,10.66,52.09
-0.243,0.199375,4.656,4.087,64.0,10.66,52.12
-0.222,0.308125,4.654,4.084,64.0,10.66,52.17
-0.217,0.370375,4.652,4.084,64.0,10.66,52.22
-0.284,0.25125,4.651,4.083,64.0,10.66,52.27
0.167,0.2305,4.65,4.082,64.0,10.66,52.24
-0.268,0.227875,4.649,4.08,64.0,10.66,52.19
-0.16,0.313375,4.647,4.079,64.0,10.66,52.21
-0.053,0.22525,4.646,4.079,69.0,10.66,52.26
0.143,0.1165,4.646,4.078,69.0,10.66,52.31
-0.026,0.32375,4.644,4.077,69.0,10.66,52.33
