ECG,foot GSR,hand GSR,HR,marker,RESP
-0.071,19.302,8.375,53.0,13.19,35.53
-0.076,19.319,8.371,53.0,13.2,35.54
-0.003,19.341,8.369,53.0,13.2,35.55
0.115,19.365,8.365,68.0,13.19,35.57
0.055,19.389,8.361,68.0,13.2,35.51
-0.069,19.416,8.359,68.0,13.12,34.48
-0.062,19.442,8.356,68.0,13.08,34.38
-0.079,19.469,8.353,68.0,13.09,34.31
-0.092,19.497,8.35,68.0,13.08,34.06
-0.079,19.524,8.348,68.0,13.09,33.96
-0.013,19.551,8.345,68.0,13.08,33.91
-0.104,19.579,8.343,68.0,13.08,33.89
0.154,19.605,8.34,68.0,13.09,33.88
-0.062,19.63,8.338,68.0,13.08,33.87
-0.024,19.655,8.334,68.0,13.08,33.84
0.06,19.68,8.333,68.0,13.08,33.81
0.163,19.703,8.33,68.0,13.08,33.78
0.027,19.726,8.328,68.0,13.08,33.78
-0.044,19.747,8.325,68.0,13.08,33.77
-0.044,19.767,8.323,73.0,13.08,33.78
-0.063,19.785,8.32,73.0,13.08,33.72
-0.075,19.803,8.319,73.0,13.08,33.58
-0.077,19.819,8.316,73.0,13.08,33.6
-0.076,19.834,8.313,73.0,13.08,33.57
-0.015,19.847,8.311,73.0,13.08,33.59
-0.05,19.86,8.309,73.0,13.08,33.59
0.015,19.869,8.306,73.0,13.08,33.6
0.084,19.879,8.304,73.0,13.08,33.58
-0.031,19.889,8.302,73.0,13.08,33.57
0.025,19.896,8.299,73.0,13.08,33.56
0.136,19.903,8.296,73.0,13.08,33.56
0.152,19.908,8.293,73.0,13.08,33.56
-0.013,19.913,8.291,73.0,13.08,33.57
-0.02,19.917,8.288,64.0,13.08,33.57
-0.029,19.92,8.284,64.0,13.08,33.6
-0.049,19.921,8.282,64.0,13.08,33.49
-0.055,19.92,8.279,64.0,13.08,33.47
-0.056,19.92,8.277,64.0,13.08,33.48
-0.056,19.92,8.273,64.0,13.08,33.48
-0.031,19.917,8.272,64.0,13.08,33.49
0.011,19.915,8.268,64.0,13.08,33.51
-0.06,19.911,8.266,64.0,13.08,33.51
0.187,19.908,8.262,64.0,13.08,33.49
-0.015,19.903,8.259,64.0,13.08,33.49
0.028,19.897,8.257,64.0,13.08,33.49
0.123,19.891,8.254,64.0,13.08,33.49
0.21,19.884,8.251,64.0,13.08,33.5
0.046,19.877,8.248,64.0,13.08,33.49
-0.004,19.868,8.244,64.0,13.08,33.49
-0.005,19.861,8.243,64.0,13.08,33.52
-0.022,19.852,8.239,64.0,13.08,33.45
-0.035,19.842,8.237,60.0,13.08,33.37
-0.037,19.832,8.234,60.0,13.08,33.39
-0.039,19.82,8.232,60.0,13.08,33.38
0.014,19.81,8.228,60.0,13.08,33.41
-0.015,19.799,8.226,60.0,13.08,33.42
0.047,19.786,8.223,60.0,13.08,33.43
0.091,19.774,8.221,60.0,13.08,33.42
-0.021,19.762,8.217,60.0,13.08,33.41
0.029,19.749,8.215,60.0,13.08,33.42
0.141,19.735,8.212,60.0,13.08,33.43
0.157,19.722,8.209,60.0,13.08,33.48
-0.023,19.708,8.206,60.0,13.08,33.57
-0.039,19.694,8.204,63.0,13.08,33.73
-0.05,19.68,8.2,63.0,13.08,33.97
-0.071,19.667,8.197,63.0,13.08,34.12
-0.08,19.652,8.194,63.0,13.08,34.44
-0.086,19.638,8.191,63.0,13.08,34.89
-0.016,19.625,8.189,63.0,13.08,35.32
-0.104,19.61,8.185,63.0,13.08,35.72
0.148,19.595,8.182,63.0,13.08,36.07
-0.085,19.58,8.179,63.0,13.08,36.38
-0.063,19.568,8.175,63.0,13.08,36.72
0.003,19.553,8.172,63.0,13.08,37.01
0.111,19.538,8.169,68.0,13.08,37.3
0.032,19.523,8.166,68.0,13.08,37.53
-0.07,19.51,8.162,68.0,13.08,37.63
-0.064,19.496,8.159,68.0,13.08,37.57
-0.077,19.483,8.156,68.0,13.08,37.41
-0.086,19.468,8.152,68.0,13.08,37.19
-0.087,19.454,8.15,68.0,13.08,37.02
-0.017,19.441,8.145,68.0,13.08,36.83
-0.071,19.427,8.142,68.0,13.08,36.7
0.098,19.414,8.137,68.0,13.08,36.56
-0.017,19.401,8.135,68.0,13.08,36.37
-0.043,19.389,8.131,68.0,13.08,36.17
0.016,19.376,8.129,68.0,13.08,36.02
0.131,19.362,8.129,70.0,13.08,35.87
0.1,19.351,8.13,70.0,13.06,35.65
-0.054,19.339,8.132,70.0,13.08,35.38
-0.053,19.328,8.124,70.0,13.08,34.92
-0.062,19.315,8.118,70.0,13.08,34.68
-0.082,19.303,8.11,70.0,13.08,34.41
-0.089,19.292,8.108,70.0,13.08,34.14
-0.1,19.28,8.103,70.0,13.08,33.85
-0.029,19.27,8.098,70.0,13.08,33.72
-0.108,19.26,8.093,70.0,13.08,33.71
0.118,19.25,8.09,70.0,13.08,33.7
-0.094,19.241,8.085,70.0,13.08,33.76
-0.082,19.232,8.083,70.0,13.08,33.86
-0.02,19.225,8.078,70.0,13.08,34.05
0.091,19.216,8.074,67.0,13.08,34.35
0.037,19.208,8.07,67.0,13.08,34.71
-0.1,19.202,8.065,67.0,13.06,35.01
-0.092,19.195,8.063,67.0,13.06,35.34
-0.1,19.19,8.06,67.0,13.06,35.68
-0.113,19.184,8.055,67.0,13.06,35.91
-0.1,19.177,8.053,67.0,13.06,36.23
-0.041,19.172,8.049,67.0,13.06,36.55
-0.124,19.167,8.045,67.0,13.06,36.88
0.16,19.161,8.042,67.0,13.06,37.16
-0.084,19.155,8.039,67.0,13.06,37.37
-0.047,19.15,8.037,67.0,13.06,37.52
0.036,19.145,8.035,72.0,13.06,37.61
0.124,19.14,8.031,72.0,13.06,37.62
-0.013,19.134,8.028,72.0,13.06,37.65
-0.069,19.128,8.025,72.0,13.06,37.62
-0.056,19.123,8.021,72.0,13.06,37.54
-0.071,19.116,8.018,72.0,13.06,37.39
-0.079,19.11,8.016,72.0,13.06,37.23
-0.078,19.105,8.012,72.0,13.06,37.13
-0.078,19.098,8.01,72.0,13.06,36.99
-0.004,19.09,8.006,72.0,13.06,36.95
-0.068,19.084,8.002,72.0,13.06,36.86
0.151,19.078,8.0,72.0,13.06,36.74
-0.024,19.07,7.997,72.0,13.06,36.65
-0.021,19.064,7.993,72.0,13.06,36.58
0.043,19.057,7.991,72.0,13.06,36.53
0.157,19.051,7.986,72.0,13.06,36.47
0.119,19.043,7.983,72.0,13.06,36.42
-0.022,19.036,7.981,72.0,13.06,36.36
-0.017,19.029,7.977,64.0,13.06,36.3
-0.022,19.022,7.973,64.0,13.06,36.22
-0.039,19.014,7.971,64.0,13.06,36.0
-0.043,19.008,7.967,64.0,13.06,35.85
-0.045,19.002,7.965,64.0,13.06,35.65
-0.042,18.994,7.961,64.0,13.06,35.51
-0.034,18.987,7.958,64.0,13.06,35.39
0.045,18.981,7.956,64.0,13.06,35.24
-0.04,18.974,7.952,64.0,13.06,35.1
0.213,18.966,7.949,64.0,13.06,34.96
-0.016,18.959,7.946,64.0,13.06,34.84
0.019,18.952,7.944,64.0,13.06,34.7
0.098,18.945,7.941,64.0,13.06,34.62
0.217,18.939,7.936,64.0,13.06,34.56
0.117,18.931,7.934,64.0,13.06,34.5
-0.008,18.926,7.931,64.0,13.06,34.44
0.001,18.919,7.929,59.0,13.06,34.39
-0.009,18.914,7.925,59.0,13.06,34.3
-0.026,18.907,7.923,59.0,13.06,34.12
-0.031,18.901,7.92,59.0,13.06,34.09
-0.031,18.896,7.918,59.0,13.05,34.06
-0.028,18.889,7.914,59.0,13.06,34.05
-0.024,18.884,7.913,59.0,13.06,34.07
0.036,18.879,7.909,59.0,13.06,34.09
0.003,18.874,7.906,59.0,13.06,34.09
0.095,18.867,7.904,59.0,13.05,34.09
0.106,18.862,7.901,59.0,13.06,34.09
0.017,18.854,7.898,59.0,13.05,34.1
0.073,18.849,7.895,59.0,13.05,34.1
0.191,18.842,7.893,59.0,13.06,34.11
0.204,18.835,7.89,59.0,13.05,34.11
0.016,18.829,7.888,59.0,13.05,34.12
0.005,18.823,7.884,59.0,13.06,34.12
0.005,18.817,7.881,56.0,13.06,34.13
-0.009,18.81,7.879,56.0,13.06,34.04
-0.019,18.804,7.876,56.0,13.06,34.0
-0.021,18.798,7.874,56.0,13.06,34.02
-0.018,18.792,7.871,56.0,13.06,34.0
-0.016,18.785,7.869,56.0,13.06,34.03
0.046,18.778,7.865,56.0,13.06,34.05
0.005,18.771,7.863,56.0,13.05,34.05
0.123,18.765,7.861,56.0,13.05,34.04
0.091,18.758,7.858,56.0,13.05,34.05
0.025,18.75,7.856,56.0,13.05,34.05
0.083,18.743,7.852,56.0,13.06,34.05
0.206,18.737,7.849,56.0,13.06,34.06
0.209,18.73,7.846,56.0,13.05,34.06
0.022,18.723,7.843,56.0,13.05,34.08
0.012,18.717,7.841,56.0,13.05,34.07
0.011,18.71,7.838,58.0,13.05,34.08
-0.006,18.703,7.834,58.0,13.05,34.0
-0.017,18.698,7.832,58.0,13.06,33.98
-0.02,18.69,7.829,58.0,13.05,33.98
-0.022,18.685,7.827,58.0,13.05,33.97
-0.019,18.678,7.824,58.0,13.06,33.99
0.06,18.675,7.822,58.0,13.05,34.02
-0.025,18.668,7.818,58.0,13.05,34.0
0.22,18.665,7.816,58.0,13.05,34.0
-0.004,18.66,7.813,58.0,13.05,34.0
0.03,18.657,7.809,58.0,13.05,34.0
0.101,18.653,7.807,58.0,13.05,34.0
0.23,18.65,7.804,58.0,13.05,34.0
0.14,18.647,7.801,58.0,13.05,34.03
0.002,18.643,7.798,58.0,13.05,34.03
0.007,18.64,7.796,59.0,13.05,34.06
-0.002,18.637,7.793,59.0,13.05,34.04
-0.02,18.634,7.791,59.0,13.05,33.96
-0.029,18.63,7.788,59.0,13.05,33.97
-0.033,18.628,7.784,59.0,13.05,33.95
-0.034,18.626,7.782,59.0,13.05,33.96
0.033,18.622,7.779,59.0,13.05,34.02
-0.032,18.62,7.777,59.0,13.05,34.11
0.18,18.616,7.775,59.0,13.05,34.24
-0.014,18.613,7.772,59.0,13.05,34.46
-0.014,18.608,7.769,59.0,13.05,34.71
0.044,18.603,7.766,59.0,13.05,35.02
0.161,18.601,7.764,60.0,13.05,35.33
0.129,18.594,7.757,60.0,13.05,35.7
-0.032,18.59,7.757,60.0,13.05,36.07
-0.037,18.588,7.755,60.0,13.05,36.45
-0.05,18.583,7.754,60.0,13.05,36.7
-0.052,18.578,7.751,60.0,13.05,36.93
-0.058,18.573,7.747,60.0,13.05,37.22
-0.001,18.568,7.745,60.0,13.05,37.51
-0.038,18.563,7.742,60.0,13.05,37.83
0.083,18.558,7.74,60.0,13.05,38.32
0.075,18.553,7.737,60.0,13.05,38.33
-0.022,18.548,7.735,60.0,13.05,38.58
0.035,18.543,7.731,60.0,13.05,38.79
0.152,18.538,7.736,60.0,13.05,38.92
0.148,18.534,7.746,60.0,13.05,38.99
-0.005,18.527,7.74,60.0,13.05,39.03
0.004,18.524,7.736,60.0,13.05,38.95
-0.001,18.517,7.732,60.0,13.05,38.75
-0.022,18.513,7.731,60.0,13.05,38.5
-0.02,18.51,7.731,60.0,13.05,38.27
-0.024,18.504,7.73,60.0,13.05,38.07
-0.047,18.499,7.729,60.0,13.05,37.68
0.203,18.491,7.727,60.0,13.05,37.13
-0.009,18.485,7.726,60.0,13.06,36.69
0.021,18.479,7.722,60.0,13.06,36.42
0.085,18.474,7.72,60.0,13.04,35.85
0.198,18.469,7.717,60.0,13.04,35.82
0.109,18.464,7.715,60.0,13.03,35.63
-0.026,18.459,7.712,60.0,13.04,35.43
-0.016,18.454,7.71,72.0,12.99,35.12
-0.034,18.448,7.706,72.0,13.03,34.83
-0.048,18.442,7.706,72.0,13.17,34.44
-0.048,18.434,7.706,72.0,13.2,34.11
0.038,18.425,7.706,72.0,12.99,33.92
-0.022,18.418,7.709,72.0,12.9,33.85
0.227,18.41,7.705,72.0,12.99,33.76
0.025,18.402,7.702,72.0,12.73,33.85
0.049,18.394,7.699,72.0,12.78,33.91
0.123,18.387,7.696,72.0,12.82,34.09
0.257,18.382,7.694,72.0,13.54,34.2
0.189,18.374,7.69,72.0,13.74,34.0
0.026,18.368,7.687,72.0,14.27,33.71
0.038,18.362,7.685,71.0,14.85,33.59
0.032,18.355,7.682,71.0,13.38,33.46
0.002,18.35,7.679,71.0,12.4,33.22
-0.001,18.344,7.677,71.0,12.6,33.11
0.003,18.332,7.674,71.0,25.88,33.13
0.05,18.329,7.672,71.0,47.97,33.13
-0.046,18.325,7.669,71.0,69.33,33.04
-0.02,18.317,7.668,71.0,80.14,32.96
-0.013,18.312,7.664,71.0,81.37,32.69
0.016,18.305,7.662,71.0,65.96,32.29
0.106,18.3,7.66,71.0,28.07,32.36
0.211,18.295,7.657,71.0,32.66,32.61
0.034,18.288,7.654,71.0,71.73,32.73
-0.053,18.282,7.652,71.0,83.73,32.74
-0.044,18.277,7.65,71.0,81.14,33.01
-0.064,18.273,7.648,71.0,82.68,33.24
-0.083,18.266,7.645,71.0,48.99,33.41
-0.091,18.26,7.643,71.0,24.58,33.75
-0.085,18.255,7.64,71.0,57.61,34.13
-0.034,18.25,7.638,71.0,81.52,34.53
-0.122,18.245,7.635,71.0,83.95,34.86
0.157,18.238,7.633,71.0,86.01,35.22
-0.097,18.233,7.632,71.0,68.88,35.64
-0.064,18.228,7.629,71.0,29.64,35.98
0.013,18.223,7.627,71.0,19.49,36.31
0.118,18.218,7.625,71.0,22.06,36.7
-0.018,18.213,7.623,71.0,17.84,37.06
-0.092,18.208,7.622,71.0,20.14,37.38
-0.082,18.203,7.619,71.0,18.18,37.67
-0.096,18.199,7.618,71.0,18.35,37.83
-0.105,18.195,7.617,71.0,17.98,38.0
-0.105,18.192,7.614,71.0,17.96,38.17
-0.055,18.188,7.613,71.0,18.14,38.29
-0.077,18.186,7.612,71.0,17.8,38.35
0.005,18.182,7.612,71.0,17.87,38.35
0.07,18.18,7.61,71.0,17.64,38.31
-0.068,18.177,7.609,71.0,17.67,38.3
-0.015,18.176,7.607,71.0,17.54,38.26
0.099,18.176,7.607,68.0,17.57,38.24
0.112,18.177,7.604,68.0,17.53,38.24
-0.057,18.177,7.604,68.0,17.5,38.22
-0.064,18.178,7.604,68.0,17.45,38.2
-0.059,18.18,7.603,68.0,17.39,38.16
-0.077,18.183,7.602,68.0,17.34,38.06
-0.083,18.186,7.599,68.0,17.29,38.04
-0.083,18.188,7.599,68.0,17.26,38.01
-0.081,18.192,7.599,68.0,17.24,37.97
-0.079,18.195,7.598,68.0,17.2,37.98
-0.073,18.198,7.597,68.0,17.14,37.97
0.0,18.204,7.597,68.0,17.1,37.91
-0.075,18.21,7.595,68.0,17.08,37.89
0.175,18.213,7.595,68.0,17.03,37.88
-0.015,18.215,7.593,68.0,17.01,37.86
0.057,18.218,7.592,68.0,16.98,37.86
0.178,18.222,7.592,68.0,16.96,37.86
0.082,18.224,7.59,68.0,16.93,37.89
-0.041,18.227,7.59,68.0,16.91,37.9
-0.032,18.229,7.59,55.0,16.87,37.92
-0.037,18.23,7.587,55.0,16.84,37.86
-0.054,18.232,7.587,55.0,16.82,37.77
-0.058,18.233,7.585,55.0,16.8,37.75
-0.059,18.232,7.585,55.0,16.78,37.7
-0.058,18.234,7.583,55.0,16.76,37.71
-0.054,18.234,7.582,55.0,16.74,37.69
-0.054,18.234,7.582,55.0,16.73,37.67
-0.019,18.234,7.58,55.0,16.7,37.64
-0.005,18.234,7.578,55.0,16.69,37.6
-0.006,18.233,7.577,55.0,16.67,37.58
0.184,18.232,7.575,55.0,16.65,37.56
-0.018,18.23,7.575,55.0,16.64,37.55
0.027,18.229,7.572,55.0,16.62,37.57
0.139,18.227,7.571,56.0,16.6,37.56
0.198,18.224,7.57,56.0,16.59,37.55
0.0,18.223,7.567,56.0,16.57,37.54
-0.038,18.22,7.566,56.0,16.56,37.52
-0.028,18.218,7.563,56.0,16.54,37.49
-0.046,18.217,7.562,56.0,16.53,37.35
-0.054,18.213,7.561,56.0,16.52,37.25
-0.058,18.21,7.56,56.0,16.51,37.21
-0.057,18.208,7.557,56.0,16.48,37.16
-0.055,18.204,7.556,56.0,16.48,37.16
-0.055,18.2,7.555,56.0,16.47,37.15
-0.031,18.198,7.552,56.0,16.46,37.12
0.006,18.195,7.551,56.0,16.45,37.1
-0.049,18.192,7.55,56.0,16.42,37.09
0.22,18.188,7.547,56.0,16.42,37.08
-0.02,18.186,7.546,56.0,16.41,37.08
0.017,18.181,7.545,56.0,16.4,37.08
0.117,18.177,7.542,54.0,16.38,37.1
0.215,18.173,7.54,54.0,16.37,37.1
0.025,18.168,7.537,54.0,16.37,37.12
-0.044,18.163,7.536,54.0,16.36,37.1
-0.032,18.161,7.535,54.0,16.35,37.11
-0.043,18.156,7.532,54.0,16.34,37.02
-0.056,18.151,7.531,54.0,16.32,36.93
-0.061,18.146,7.53,54.0,16.32,36.92
-0.062,18.141,7.527,54.0,16.3,36.88
-0.063,18.136,7.525,54.0,16.3,36.9
-0.063,18.131,7.523,54.0,16.29,36.89
-0.041,18.126,7.521,54.0,16.27,36.87
0.005,18.122,7.52,54.0,16.27,36.85
-0.064,18.116,7.517,54.0,16.26,36.84
0.22,18.112,7.515,54.0,16.25,36.83
-0.025,18.103,7.512,54.0,16.24,36.83
0.012,18.1,7.51,54.0,16.23,36.83
0.118,18.096,7.509,54.0,16.23,36.85
0.097,18.091,7.506,54.0,16.21,36.85
0.04,18.086,7.504,54.0,16.21,36.85
-0.042,18.081,7.503,54.0,16.2,36.83
-0.032,18.076,7.5,54.0,16.19,36.82
-0.043,18.071,7.499,54.0,16.19,36.73
-0.058,18.066,7.498,54.0,16.16,36.64
-0.062,18.061,7.495,54.0,16.16,36.63
-0.063,18.056,7.493,54.0,16.16,36.58
-0.062,18.051,7.49,54.0,16.15,36.59
-0.06,18.046,7.488,54.0,16.14,36.6
0.005,18.041,7.486,54.0,16.14,36.59
-0.048,18.036,7.484,54.0,16.13,36.57
0.182,18.031,7.483,54.0,16.12,36.57
-0.012,18.025,7.48,54.0,16.12,36.56
-0.013,18.021,7.478,54.0,16.12,36.57
0.049,18.016,7.475,54.0,16.1,36.58
0.181,18.011,7.474,54.0,16.09,36.58
0.164,18.007,7.471,54.0,16.09,36.59
-0.028,18.002,7.469,54.0,16.09,36.59
-0.032,17.997,7.466,56.0,16.08,36.59
-0.028,17.992,7.465,56.0,16.07,36.56
-0.044,17.987,7.463,56.0,16.07,36.48
-0.052,17.982,7.46,56.0,16.07,36.45
-0.053,17.977,7.459,56.0,16.05,36.42
-0.053,17.974,7.458,56.0,16.04,36.4
-0.053,17.968,7.455,56.0,16.04,36.42
0.011,17.962,7.45,56.0,16.04,36.42
-0.038,17.956,7.45,56.0,16.03,36.38
0.031,17.954,7.448,56.0,16.02,36.36
-0.015,17.949,7.446,56.0,16.02,36.35
-0.006,17.944,7.444,56.0,16.02,36.36
0.055,17.939,7.441,56.0,16.01,36.36
0.188,17.937,7.44,56.0,16.01,36.38
0.176,17.932,7.436,56.0,15.99,36.4
-0.019,17.927,7.435,56.0,15.99,36.45
-0.026,17.924,7.433,59.0,15.98,36.45
-0.022,17.92,7.431,59.0,15.98,36.45
-0.04,17.916,7.429,59.0,15.97,36.41
-0.047,17.912,7.426,59.0,15.97,36.44
-0.051,17.91,7.425,59.0,15.97,36.47
-0.048,17.905,7.423,59.0,15.97,36.5
0.024,17.902,7.421,59.0,15.96,36.55
-0.057,17.899,7.418,59.0,15.94,36.58
0.232,17.896,7.416,59.0,15.94,36.59
-0.031,17.892,7.414,59.0,15.94,36.59
0.007,17.889,7.412,59.0,15.94,36.6
0.083,17.886,7.409,59.0,15.93,36.6
0.218,17.882,7.407,59.0,15.92,36.61
0.112,17.88,7.406,59.0,15.92,36.61
-0.03,17.877,7.403,59.0,15.92,36.61
-0.025,17.874,7.402,62.0,15.92,36.6
-0.03,17.87,7.399,62.0,15.91,36.55
-0.045,17.867,7.397,62.0,15.9,36.45
-0.049,17.864,7.396,62.0,15.9,36.42
-0.051,17.86,7.393,62.0,15.9,36.36
-0.034,17.857,7.391,62.0,15.9,36.35
0.007,17.855,7.389,62.0,15.9,36.37
-0.065,17.851,7.387,62.0,15.88,36.36
0.218,17.847,7.384,62.0,15.87,36.35
-0.03,17.844,7.383,62.0,15.87,36.32
0.011,17.84,7.381,62.0,15.87,36.33
0.115,17.836,7.379,63.0,15.87,36.32
0.237,17.833,7.377,63.0,15.86,36.31
0.068,17.829,7.374,63.0,15.86,36.29
-0.012,17.825,7.373,63.0,15.85,36.26
0.005,17.822,7.372,63.0,15.85,36.3
-0.002,17.818,7.369,63.0,15.85,36.26
-0.009,17.813,7.367,63.0,15.85,36.24
-0.006,17.81,7.366,63.0,15.85,36.11
-0.005,17.805,7.363,63.0,15.83,35.91
0.0,17.803,7.361,63.0,15.82,35.78
0.073,17.798,7.359,63.0,15.82,35.54
0.022,17.794,7.357,63.0,15.82,35.24
0.23,17.79,7.354,63.0,15.82,34.99
0.051,17.788,7.353,63.0,15.82,34.78
0.046,17.783,7.351,82.0,15.81,34.56
0.109,17.78,7.348,82.0,15.81,34.36
0.249,17.775,7.346,82.0,15.8,34.27
0.243,17.772,7.344,82.0,15.8,34.15
0.041,17.768,7.343,82.0,15.8,33.99
0.033,17.764,7.341,82.0,15.8,33.89
0.032,17.76,7.338,82.0,15.8,33.86
0.017,17.755,7.337,82.0,15.79,33.64
0.01,17.753,7.336,82.0,15.79,33.53
0.006,17.749,7.333,82.0,15.79,33.5
0.006,17.745,7.331,82.0,15.77,33.44
0.025,17.741,7.33,82.0,15.77,33.45
0.072,17.737,7.329,82.0,15.77,33.47
-0.008,17.733,7.326,82.0,15.77,33.46
0.257,17.73,7.325,82.0,15.76,33.43
0.027,17.726,7.324,82.0,15.76,33.43
0.065,17.722,7.321,81.0,15.76,33.44
0.167,17.718,7.319,81.0,15.75,33.44
0.288,17.713,7.316,81.0,15.75,33.42
0.108,17.711,7.314,81.0,15.75,33.42
0.015,17.706,7.314,81.0,15.75,33.43
0.023,17.703,7.311,81.0,15.75,33.45
0.007,17.698,7.309,81.0,15.74,33.4
-0.006,17.696,7.307,81.0,15.74,33.34
-0.009,17.691,7.305,81.0,15.74,33.32
-0.011,17.688,7.302,81.0,15.73,33.31
-0.01,17.685,7.299,81.0,15.73,33.33
0.063,17.682,7.297,81.0,15.73,33.34
-0.012,17.68,7.296,81.0,15.73,33.34
0.232,17.677,7.294,81.0,15.71,33.34
0.0,17.677,7.294,81.0,15.71,33.32
0.016,17.677,7.291,81.0,15.71,33.3
0.078,17.68,7.289,81.0,15.71,33.31
0.212,17.683,7.29,83.0,15.7,33.28
0.164,17.688,7.289,83.0,15.7,33.29
-0.029,17.697,7.289,83.0,15.7,33.35
-0.036,17.706,7.289,83.0,15.7,33.44
-0.045,17.718,7.286,83.0,15.7,33.56
-0.068,17.744,7.287,83.0,15.7,33.68
-0.079,17.76,7.285,83.0,15.7,33.9
-0.072,17.77,7.286,83.0,15.7,34.1
-0.085,17.793,7.284,83.0,15.69,34.36
-0.103,17.818,7.284,83.0,15.69,34.68
0.17,17.842,7.284,83.0,15.69,34.89
-0.083,17.87,7.284,83.0,15.68,35.01
-0.048,17.898,7.285,83.0,15.69,35.26
0.028,17.926,7.286,96.0,15.68,35.63
0.159,17.955,7.287,96.0,15.68,35.63
0.071,17.987,7.29,96.0,15.66,35.73
-0.065,18.017,7.295,96.0,15.66,35.83
-0.06,18.047,7.296,96.0,15.66,35.93
-0.074,18.077,7.299,96.0,15.66,35.91
-0.091,18.108,7.301,96.0,15.66,35.82
-0.09,18.138,7.304,96.0,15.66,35.73
-0.033,18.167,7.304,96.0,15.65,35.66
-0.122,18.196,7.306,96.0,15.65,35.68
0.162,18.224,7.309,96.0,15.65,35.67
-0.095,18.251,7.311,96.0,15.65,35.58
-0.06,18.278,7.312,96.0,15.65,35.55
0.026,18.302,7.314,72.0,15.64,35.55
0.149,18.327,7.316,72.0,15.64,35.51
0.0,18.351,7.319,72.0,15.64,35.51
-0.096,18.373,7.321,72.0,15.64,35.52
-0.086,18.393,7.321,72.0,15.64,35.54
-0.098,18.413,7.324,72.0,15.64,35.47
-0.113,18.433,7.326,72.0,15.64,35.38
-0.096,18.45,7.326,72.0,15.63,35.38
-0.042,18.466,7.327,72.0,15.63,35.37
-0.13,18.484,7.329,72.0,15.63,35.37
0.157,18.497,7.331,72.0,15.63,35.38
-0.092,18.511,7.331,72.0,15.62,35.39
-0.054,18.524,7.333,72.0,15.62,35.4
0.04,18.535,7.332,72.0,15.62,35.38
0.155,18.547,7.333,72.0,15.62,35.4
-0.001,18.557,7.333,72.0,15.62,35.41
-0.082,18.564,7.336,72.0,15.62,35.41
-0.072,18.574,7.336,72.0,15.62,35.43
-0.087,18.581,7.336,72.0,15.6,35.36
-0.101,18.588,7.336,72.0,15.6,35.27
-0.104,18.593,7.338,72.0,15.6,35.2
-0.102,18.598,7.338,72.0,15.6,35.12
-0.078,18.603,7.338,72.0,15.59,35.11
-0.04,18.607,7.338,72.0,15.59,35.1
-0.106,18.61,7.338,72.0,15.59,35.07
0.161,18.612,7.338,72.0,15.59,35.04
-0.072,18.612,7.338,72.0,15.59,35.0
-0.028,18.612,7.338,72.0,15.59,34.99
0.071,18.612,7.338,62.0,15.59,34.97
0.175,18.612,7.338,62.0,15.59,34.95
-0.001,18.611,7.337,62.0,15.59,34.97
-0.069,18.608,7.336,62.0,15.58,34.94
-0.061,18.606,7.336,62.0,15.58,34.94
-0.076,18.602,7.336,62.0,15.58,34.78
-0.088,18.598,7.336,62.0,15.57,34.66
-0.088,18.593,7.336,62.0,15.57,34.59
-0.085,18.587,7.334,62.0,15.57,34.51
-0.082,18.581,7.333,62.0,15.57,34.49
-0.066,18.574,7.333,62.0,15.57,34.48
-0.005,18.568,7.333,62.0,15.57,34.44
-0.087,18.561,7.333,62.0,15.57,34.38
0.187,18.553,7.331,62.0,15.57,34.35
-0.048,18.544,7.331,62.0,15.57,34.33
-0.01,18.537,7.331,62.0,15.55,34.33
0.079,18.53,7.329,57.0,15.55,34.33
0.207,18.521,7.329,57.0,15.55,34.34
0.073,18.514,7.327,57.0,15.55,34.34
-0.038,18.506,7.326,57.0,15.54,34.32
-0.024,18.499,7.326,57.0,15.54,34.33
-0.036,18.491,7.325,57.0,15.54,34.25
-0.049,18.485,7.324,57.0,15.54,34.12
-0.052,18.479,7.324,57.0,15.54,34.09
-0.051,18.474,7.322,57.0,15.54,34.07
-0.051,18.469,7.321,57.0,15.54,34.06
-0.023,18.464,7.32,57.0,15.54,34.09
0.011,18.459,7.319,57.0,15.53,34.09
-0.047,18.456,7.319,57.0,15.53,34.08
0.2,18.453,7.317,57.0,15.53,34.06
-0.014,18.449,7.316,57.0,15.53,34.06
0.03,18.447,7.315,57.0,15.52,34.05
0.136,18.443,7.314,80.0,15.52,34.06
0.244,18.441,7.311,80.0,15.52,34.06
0.056,18.438,7.311,80.0,15.52,34.06
-0.017,18.436,7.31,80.0,15.52,34.05
-0.009,18.433,7.309,80.0,15.52,34.08
-0.023,18.431,7.307,80.0,15.52,33.97
-0.035,18.427,7.306,80.0,15.52,33.87
-0.039,18.424,7.305,80.0,15.52,33.86
-0.04,18.422,7.304,80.0,15.52,33.82
-0.038,18.419,7.302,80.0,15.52,33.83
0.023,18.416,7.301,80.0,15.52,33.83
-0.015,18.412,7.3,80.0,15.51,33.83
0.106,18.408,7.299,80.0,15.51,33.81
0.062,18.404,7.296,80.0,15.51,33.78
-0.013,18.401,7.296,80.0,15.49,33.78
0.039,18.397,7.294,80.0,15.49,33.77
0.161,18.392,7.292,80.0,15.49,33.8
0.189,18.387,7.291,80.0,15.49,33.85
-0.024,18.382,7.29,80.0,15.49,33.93
-0.044,18.379,7.289,80.0,15.49,34.02
-0.047,18.374,7.286,80.0,15.49,34.19
-0.067,18.368,7.285,80.0,15.49,34.27
-0.079,18.364,7.284,80.0,15.49,34.51
-0.083,18.358,7.281,80.0,15.49,34.79
-0.06,18.352,7.28,80.0,15.48,35.1
-0.033,18.347,7.279,80.0,15.48,35.45
-0.084,18.34,7.277,80.0,15.48,35.79
0.161,18.335,7.276,80.0,15.48,36.11
-0.073,18.33,7.274,80.0,15.48,36.49
-0.034,18.323,7.272,80.0,15.47,36.84
0.058,18.317,7.271,93.0,15.47,37.2
0.145,18.312,7.269,93.0,15.47,37.54
-0.021,18.305,7.267,93.0,15.47,37.91
-0.066,18.298,7.266,93.0,15.47,38.27
-0.06,18.292,7.265,93.0,15.47,38.58
-0.071,18.286,7.264,93.0,15.47,38.82
-0.077,18.28,7.261,93.0,15.47,39.05
-0.022,18.273,7.26,93.0,15.47,39.28
-0.055,18.266,7.257,93.0,15.47,39.34
0.035,18.26,7.256,93.0,15.47,39.35
0.084,18.254,7.255,93.0,15.47,39.25
-0.047,18.248,7.254,93.0,15.47,39.12
0.003,18.24,7.251,93.0,15.46,39.01
0.119,18.233,7.249,72.0,15.46,38.89
0.144,18.225,7.246,72.0,15.46,38.78
-0.032,18.22,7.245,72.0,15.46,38.67
-0.044,18.213,7.244,72.0,15.44,38.55
-0.043,18.205,7.243,72.0,15.44,38.42
-0.061,18.198,7.242,72.0,15.44,38.18
-0.07,18.191,7.239,72.0,15.44,37.99
0.009,18.184,7.237,72.0,15.44,37.88
-0.075,18.177,7.235,72.0,15.44,37.77
0.194,18.171,7.234,72.0,15.44,37.73
-0.049,18.162,7.232,72.0,15.44,37.65
-0.029,18.156,7.23,72.0,15.44,37.54
0.036,18.148,7.229,72.0,15.44,37.43
0.164,18.141,7.227,72.0,15.44,37.33
0.1,18.136,7.225,72.0,15.44,37.23
-0.049,18.128,7.224,72.0,15.43,37.13
-0.039,18.123,7.222,72.0,15.43,37.06
-0.046,18.118,7.22,72.0,15.43,36.89
-0.063,18.113,7.219,72.0,15.43,36.65
-0.066,18.108,7.217,72.0,15.43,36.51
-0.068,18.103,7.217,72.0,15.42,36.39
0.007,18.099,7.213,72.0,15.42,36.28
-0.071,18.096,7.212,72.0,15.42,36.23
0.043,18.094,7.21,72.0,15.42,36.13
-0.039,18.093,7.209,72.0,15.42,36.01
-0.031,18.09,7.208,72.0,15.42,35.9
0.035,18.088,7.205,72.0,15.42,35.78
0.167,18.088,7.204,67.0,15.42,35.7
0.122,18.088,7.203,67.0,15.42,35.63
-0.044,18.085,7.202,67.0,15.42,35.46
-0.038,18.085,7.199,67.0,15.42,35.45
-0.044,18.085,7.199,67.0,15.42,35.31
-0.062,18.085,7.197,67.0,15.42,35.03
-0.069,18.085,7.195,67.0,15.41,34.9
-0.072,18.085,7.194,67.0,15.41,34.74
-0.071,18.083,7.193,67.0,15.41,34.64
-0.068,18.083,7.192,67.0,15.41,34.6
-0.044,18.083,7.189,67.0,15.41,34.51
0.002,18.083,7.189,67.0,15.4,34.39
-0.072,18.083,7.187,67.0,15.4,34.3
0.197,18.083,7.187,67.0,15.4,34.23
-0.029,18.081,7.184,67.0,15.4,34.17
0.008,18.08,7.183,67.0,15.4,34.12
0.105,18.078,7.182,75.0,15.4,34.04
0.221,18.078,7.18,75.0,15.4,33.97
0.05,18.075,7.179,75.0,15.4,33.91
-0.036,18.074,7.177,75.0,15.4,33.85
-0.024,18.071,7.175,75.0,15.4,33.83
-0.038,18.07,7.174,75.0,15.4,33.66
-0.05,18.068,7.172,75.0,15.4,33.5
-0.055,18.065,7.172,75.0,15.4,33.45
-0.058,18.063,7.169,75.0,15.4,33.38
-0.062,18.06,7.168,75.0,15.4,33.37
-0.066,18.058,7.167,75.0,15.38,33.36
-0.053,18.055,7.167,75.0,15.4,33.36
-0.007,18.051,7.164,75.0,15.38,33.34
-0.087,18.049,7.164,75.0,15.38,33.35
0.186,18.046,7.162,75.0,15.38,33.46
-0.051,18.043,7.16,75.0,15.37,33.61
-0.016,18.039,7.159,75.0,15.37,33.81
0.075,18.034,7.158,72.0,15.37,34.05
0.201,18.03,7.157,72.0,15.37,34.33
0.043,18.026,7.155,72.0,15.37,34.61
-0.057,18.024,7.153,72.0,15.37,34.92
-0.044,18.019,7.152,72.0,15.37,35.25
-0.053,18.014,7.15,72.0,15.37,35.47
-0.067,18.011,7.15,72.0,15.37,35.69
-0.073,18.007,7.147,72.0,15.37,36.01
-0.076,18.002,7.146,72.0,15.37,36.29
-0.068,17.997,7.145,72.0,15.37,36.62
-0.001,17.992,7.142,72.0,15.37,36.88
-0.082,17.987,7.141,72.0,15.37,37.14
0.204,17.984,7.14,72.0,15.37,37.41
-0.057,17.979,7.138,72.0,15.37,37.61
-0.016,17.974,7.137,72.0,15.36,37.74
0.062,17.969,7.135,60.0,15.36,37.76
0.192,17.964,7.135,60.0,15.36,37.73
0.089,17.959,7.132,60.0,15.36,37.63
-0.038,17.954,7.131,60.0,15.36,37.54
-0.032,17.949,7.13,60.0,15.35,37.39
-0.043,17.944,7.128,60.0,15.35,37.19
-0.059,17.939,7.127,60.0,15.35,36.92
-0.066,17.934,7.125,60.0,15.35,36.74
-0.066,17.929,7.125,60.0,15.35,36.57
-0.066,17.924,7.122,60.0,15.35,36.48
-0.032,17.92,7.121,60.0,15.35,36.39
-0.023,17.913,7.12,60.0,15.35,36.24
-0.029,17.907,7.118,60.0,15.35,36.09
0.151,17.902,7.117,60.0,15.35,35.94
-0.038,17.897,7.115,60.0,15.35,35.83
0.01,17.892,7.115,60.0,15.35,35.69
0.124,17.887,7.112,81.0,15.35,35.58
0.201,17.882,7.11,81.0,15.35,35.47
-0.001,17.877,7.11,81.0,15.35,35.35
-0.047,17.872,7.107,81.0,15.33,35.21
-0.034,17.867,7.107,81.0,15.33,35.1
-0.051,17.86,7.105,81.0,15.33,34.84
-0.064,17.855,7.102,81.0,15.33,34.62
-0.066,17.852,7.102,81.0,15.33,34.47
-0.066,17.845,7.101,81.0,15.33,34.34
-0.062,17.842,7.1,81.0,15.32,34.29
-0.061,17.835,7.098,81.0,15.32,34.23
0.015,17.833,7.097,81.0,15.32,34.13
-0.051,17.828,7.095,81.0,15.32,34.03
0.191,17.823,7.093,81.0,15.32,33.95
-0.035,17.818,7.092,81.0,15.32,33.89
-0.01,17.813,7.091,81.0,15.32,33.84
0.058,17.808,7.09,81.0,15.32,33.79
0.2,17.801,7.088,81.0,15.32,33.73
0.177,17.799,7.085,81.0,15.32,33.69
-0.016,17.795,7.085,81.0,15.32,33.66
-0.022,17.79,7.083,55.0,15.32,33.63
-0.024,17.787,7.081,55.0,15.32,33.58
-0.039,17.783,7.08,55.0,15.32,33.39
-0.046,17.779,7.077,55.0,15.32,33.33
-0.046,17.775,7.077,55.0,15.32,33.3
-0.046,17.773,7.075,55.0,15.32,33.28
-0.045,17.77,7.073,55.0,15.32,33.28
-0.028,17.767,7.072,55.0,15.32,33.29
0.029,17.763,7.071,55.0,15.31,33.28
-0.053,17.76,7.07,55.0,15.31,33.27
0.215,17.758,7.069,55.0,15.31,33.26
-0.016,17.754,7.066,55.0,15.31,33.26
0.016,17.75,7.065,55.0,15.31,33.26
0.107,17.747,7.064,55.0,15.3,33.26
0.242,17.744,7.063,55.0,15.3,33.26
0.09,17.742,7.06,55.0,15.3,33.3
-0.032,17.738,7.06,55.0,15.3,33.36
-0.027,17.736,7.058,55.0,15.3,33.49
-0.042,17.732,7.056,55.0,15.31,33.54
-0.057,17.73,7.055,55.0,15.31,33.65
-0.065,17.726,7.053,55.0,15.3,33.84
-0.07,17.723,7.051,55.0,15.3,34.09
-0.072,17.72,7.05,55.0,15.27,34.39
-0.036,17.716,7.048,55.0,15.27,34.67
-0.039,17.713,7.048,55.0,15.26,34.94
-0.005,17.71,7.045,55.0,15.24,35.22
0.124,17.706,7.044,55.0,15.25,35.53
-0.047,17.702,7.043,55.0,15.24,35.84
-0.008,17.698,7.04,55.0,15.24,36.16
0.097,17.696,7.038,59.0,15.24,36.46
0.165,17.692,7.038,59.0,15.24,36.77
-0.02,17.688,7.035,59.0,15.24,37.12
-0.057,17.685,7.035,59.0,15.24,37.5
-0.055,17.681,7.033,59.0,15.24,37.8
-0.071,17.678,7.033,59.0,15.24,38.01
-0.077,17.675,7.03,59.0,15.24,38.27
-0.079,17.671,7.029,59.0,15.24,38.58
-0.059,17.668,7.028,59.0,15.24,38.79
-0.013,17.666,7.026,59.0,15.24,38.98
-0.082,17.661,7.025,59.0,15.22,39.02
0.206,17.657,7.024,59.0,15.22,38.99
-0.051,17.655,7.023,59.0,15.22,38.84
-0.016,17.651,7.021,59.0,15.22,38.71
0.075,17.648,7.019,65.0,15.22,38.53
0.187,17.644,7.018,65.0,15.22,38.36
0.026,17.641,7.016,65.0,15.22,38.2
-0.05,17.636,7.015,65.0,15.22,38.03
-0.04,17.634,7.014,65.0,15.22,37.86
-0.052,17.631,7.013,65.0,15.22,37.59
-0.06,17.628,7.01,65.0,15.22,37.33
-0.061,17.624,7.01,65.0,15.22,37.17
-0.048,17.621,7.009,65.0,15.22,37.0
0.015,17.62,7.008,65.0,15.22,36.9
-0.069,17.62,7.005,65.0,15.22,36.8
0.218,17.619,7.005,65.0,15.22,36.64
-0.04,17.62,7.003,65.0,15.22,36.49
-0.006,17.623,7.003,65.0,15.22,36.36
0.077,17.626,7.0,65.0,15.21,36.26
0.207,17.632,7.0,65.0,15.21,36.16
0.078,17.64,6.999,65.0,15.21,36.07
-0.039,17.65,6.998,65.0,15.21,35.97
-0.029,17.662,6.996,65.0,15.21,35.89
-0.04,17.676,6.996,65.0,15.21,35.68
-0.055,17.693,6.995,65.0,15.21,35.43
-0.058,17.712,6.995,65.0,15.21,35.29
-0.055,17.732,6.994,65.0,15.21,35.15
-0.052,17.753,6.995,65.0,15.21,35.05
0.027,17.778,6.995,65.0,15.21,34.97
-0.059,17.803,6.995,65.0,15.21,34.86
0.213,17.829,6.995,65.0,15.21,34.73
-0.033,17.856,6.995,65.0,15.2,34.62
0.003,17.885,6.995,65.0,15.2,34.52
0.08,17.913,6.995,65.0,15.2,34.42
0.219,17.943,6.995,65.0,15.2,34.35
0.151,17.973,6.996,65.0,15.2,34.27
-0.012,18.003,6.998,65.0,15.2,34.19
-0.008,18.035,6.998,61.0,15.2,34.14
-0.014,18.062,6.998,61.0,15.2,34.02
-0.032,18.092,6.998,61.0,15.2,33.77
-0.04,18.121,6.998,61.0,15.2,33.69
-0.041,18.147,7.0,61.0,15.2,33.61
-0.041,18.174,7.0,61.0,15.2,33.56
-0.003,18.2,7.0,61.0,15.2,33.54
0.004,18.225,7.0,61.0,15.2,33.51
-0.009,18.248,7.001,61.0,15.2,33.47
0.172,18.269,7.003,61.0,15.2,33.43
-0.021,18.291,7.003,61.0,15.2,33.41
0.02,18.311,7.003,61.0,15.19,33.39
0.133,18.329,7.004,60.0,15.19,33.38
0.215,18.347,7.005,60.0,15.19,33.39
0.006,18.363,7.005,60.0,15.19,33.45
-0.049,18.378,7.005,60.0,15.19,33.57
-0.049,18.392,7.005,60.0,15.19,33.77
-0.065,18.405,7.005,60.0,15.19,33.87
-0.076,18.418,7.005,60.0,15.19,34.07
-0.083,18.428,7.005,60.0,15.19,34.33
-0.078,18.438,7.005,60.0,15.19,34.58
-0.012,18.448,7.005,60.0,15.19,34.9
-0.097,18.457,7.005,60.0,15.19,35.17
0.18,18.464,7.005,60.0,15.19,35.43
-0.082,18.471,7.005,60.0,15.19,35.71
-0.047,18.476,7.005,60.0,15.19,36.0
0.025,18.481,7.005,64.0,15.19,36.31
0.148,18.486,7.005,64.0,15.18,36.59
0.052,18.489,7.005,64.0,15.18,36.91
-0.068,18.493,7.005,64.0,15.18,37.27
-0.064,18.494,7.005,64.0,15.18,37.57
-0.077,18.498,7.003,64.0,15.18,37.76
-0.09,18.498,7.004,64.0,15.18,37.9
-0.091,18.498,7.003,64.0,15.18,38.1
-0.045,18.498,7.003,64.0,15.18,38.19
-0.047,18.495,7.003,64.0,15.18,38.2
-0.026,18.493,7.003,64.0,15.18,38.15
0.134,18.49,7.003,64.0,15.18,38.02
-0.053,18.486,7.001,64.0,15.18,37.9
-0.002,18.484,7.001,64.0,15.18,37.77
0.107,18.479,7.0,68.0,15.18,37.61
0.168,18.474,7.0,68.0,15.18,37.46
-0.016,18.466,7.0,68.0,15.18,37.33
-0.044,18.461,7.0,68.0,15.18,37.18
-0.038,18.456,6.998,68.0,15.18,37.05
-0.054,18.449,6.998,68.0,15.18,36.79
-0.064,18.443,6.998,68.0,15.16,36.6
-0.067,18.435,6.998,68.0,15.16,36.46
-0.057,18.428,6.995,68.0,15.16,36.3
0.006,18.42,6.995,68.0,15.16,36.24
-0.079,18.412,6.995,68.0,15.16,36.13
0.208,18.404,6.994,68.0,15.16,36.01
-0.042,18.395,6.993,68.0,15.16,35.89
-0.006,18.388,6.993,68.0,15.16,35.77
0.077,18.378,6.991,64.0,15.16,35.67
0.207,18.369,6.99,64.0,15.16,35.58
0.083,18.361,6.99,64.0,15.16,35.51
-0.032,18.352,6.99,64.0,15.16,35.41
-0.021,18.343,6.988,64.0,15.16,35.34
-0.03,18.333,6.988,64.0,15.16,35.12
-0.046,18.323,6.986,64.0,15.16,34.86
-0.05,18.316,6.985,64.0,15.16,34.75
-0.048,18.306,6.985,64.0,15.15,34.63
-0.048,18.296,6.984,64.0,15.15,34.57
-0.041,18.286,6.983,64.0,15.15,34.51
0.031,18.278,6.983,64.0,15.15,34.44
-0.054,18.269,6.98,64.0,15.15,34.35
0.214,18.259,6.98,64.0,15.15,34.29
-0.024,18.25,6.979,64.0,15.15,34.22
0.009,18.241,6.978,64.0,15.15,34.15
0.088,18.231,6.978,64.0,15.15,34.09
0.226,18.223,6.976,64.0,15.15,34.03
0.123,18.214,6.976,64.0,15.15,33.96
-0.015,18.205,6.974,64.0,15.15,33.9
-0.007,18.196,6.973,58.0,15.15,33.85
-0.017,18.188,6.973,58.0,15.14,33.73
-0.038,18.179,6.971,58.0,15.14,33.53
-0.042,18.166,6.969,58.0,15.14,33.47
-0.042,18.157,6.971,58.0,15.14,33.41
-0.044,18.153,6.968,58.0,15.14,33.38
0.007,18.144,6.966,58.0,15.14,33.38
0.023,18.137,6.966,58.0,15.14,33.37
-0.061,18.128,6.964,58.0,15.14,33.35
0.194,18.121,6.963,58.0,15.14,33.34
-0.05,18.112,6.963,58.0,15.14,33.4
-0.025,18.104,6.961,58.0,15.14,33.61
0.043,18.096,6.959,58.0,15.14,33.62
0.177,18.087,6.958,57.0,15.14,33.83
0.127,18.08,6.957,57.0,15.14,34.05
-0.052,18.072,6.956,57.0,15.14,34.29
-0.054,18.065,6.953,57.0,15.14,34.58
-0.065,18.057,6.953,57.0,15.14,34.79
-0.084,18.049,6.951,57.0,15.14,34.95
-0.091,18.042,6.951,57.0,15.14,35.25
-0.092,18.034,6.948,57.0,15.14,35.53
-0.069,18.027,6.948,57.0,15.14,35.84
-0.053,18.02,6.947,57.0,15.14,36.14
-0.092,18.012,6.946,57.0,15.14,36.41
0.146,18.007,6.943,57.0,15.13,36.68
-0.082,17.999,6.943,57.0,15.13,36.99
-0.038,17.992,6.942,57.0,15.13,37.3
0.058,17.984,6.941,57.0,15.13,37.61
0.143,17.978,6.938,57.0,15.13,37.9
-0.03,17.972,6.938,57.0,15.13,38.23
-0.073,17.964,6.937,57.0,15.13,38.5
-0.068,17.957,6.936,57.0,15.13,38.76
-0.084,17.952,6.934,57.0,15.13,38.89
-0.093,17.944,6.933,57.0,15.13,38.9
-0.095,17.937,6.933,57.0,15.13,38.85
-0.083,17.932,6.931,57.0,15.13,38.7
-0.02,17.925,6.931,57.0,15.13,38.58
-0.1,17.92,6.928,57.0,15.13,38.41
0.202,17.912,6.927,57.0,15.13,38.22
-0.058,17.906,6.926,57.0,15.13,38.03
-0.021,17.9,6.926,57.0,15.13,37.87
0.06,17.893,6.923,65.0,15.13,37.7
0.185,17.887,6.922,65.0,15.11,37.55
0.07,17.881,6.922,65.0,15.11,37.41
-0.045,17.875,6.921,65.0,15.11,37.28
-0.029,17.87,6.918,65.0,15.11,37.18
-0.044,17.865,6.917,65.0,15.11,36.95
-0.06,17.857,6.916,65.0,15.11,36.69
-0.062,17.852,6.916,65.0,15.11,36.53
-0.057,17.847,6.916,65.0,15.11,36.37
-0.05,17.842,6.913,65.0,15.11,36.26
0.011,17.837,6.913,65.0,15.11,36.15
-0.007,17.833,6.911,65.0,15.11,36.04
0.078,17.828,6.911,65.0,15.11,35.93
0.126,17.823,6.911,65.0,15.11,35.9
0.003,17.82,6.911,65.0,15.11,35.86
0.057,17.815,6.911,65.0,15.11,35.74
0.178,17.81,6.911,65.0,15.11,35.63
0.226,17.808,6.911,65.0,15.11,35.51
0.02,17.807,6.911,65.0,15.11,35.36
-0.033,17.808,6.908,65.0,15.11,35.17
-0.009,17.815,6.906,60.0,15.11,34.97
-0.067,17.823,6.903,60.0,15.11,34.59
-0.066,17.828,6.903,60.0,15.11,34.24
-0.055,17.828,6.901,60.0,15.11,33.98
-0.046,17.827,6.901,60.0,15.1,33.84
-0.045,17.824,6.901,60.0,15.1,33.84
-0.033,17.824,6.901,60.0,15.1,33.5
0.05,17.824,6.902,60.0,15.1,33.31
-0.037,17.824,6.901,60.0,15.1,33.31
0.208,17.824,6.901,60.0,15.1,33.42
-0.021,17.824,6.898,60.0,15.1,33.3
0.011,17.824,6.892,60.0,15.1,33.22
0.089,17.824,6.89,60.0,15.1,33.18
0.23,17.824,6.89,60.0,15.1,33.04
0.158,17.824,6.889,60.0,15.1,32.9
-0.014,17.824,6.886,60.0,15.1,32.95
-0.023,17.825,6.886,55.0,15.1,33.0
-0.041,17.827,6.886,55.0,15.1,32.82
-0.063,17.827,6.885,55.0,15.1,32.5
-0.073,17.827,6.885,55.0,15.1,32.3
-0.077,17.827,6.892,55.0,15.1,32.17
-0.082,17.827,6.899,55.0,15.09,32.26
-0.056,17.827,6.907,55.0,15.09,32.37
-0.031,17.824,6.918,55.0,15.09,32.69
-0.079,17.824,6.933,55.0,15.09,32.87
0.129,17.824,6.937,55.0,15.09,33.05
-0.075,17.823,6.924,55.0,15.09,33.36
-0.045,17.822,6.907,55.0,15.09,33.73
0.046,17.823,6.894,59.0,15.09,34.13
0.139,17.825,6.89,59.0,15.09,34.63
-0.046,17.828,6.889,59.0,15.09,34.98
-0.107,17.832,6.889,59.0,15.09,35.38
-0.101,17.835,6.889,59.0,15.09,35.89
-0.117,17.842,6.89,59.0,15.09,36.06
-0.12,17.851,6.894,59.0,15.09,36.15
-0.062,17.858,6.902,59.0,15.09,36.39
-0.09,17.872,6.912,59.0,15.09,36.74
0.019,17.885,6.914,59.0,15.09,37.17
0.039,17.9,6.917,59.0,15.09,37.44
-0.07,17.918,6.922,59.0,15.09,37.53
-0.014,17.936,6.927,59.0,15.09,37.58
0.107,17.956,6.932,72.0,15.09,37.46
0.135,17.989,6.942,72.0,15.09,37.34
-0.039,18.006,6.947,72.0,15.09,37.2
-0.048,18.019,6.95,72.0,15.09,37.05
-0.05,18.041,6.957,72.0,15.09,36.87
-0.053,18.064,6.961,72.0,15.09,36.56
-0.056,18.085,6.964,72.0,15.08,36.32
-0.026,18.107,6.969,72.0,15.08,36.09
0.001,18.127,6.973,72.0,15.08,35.9
-0.055,18.147,6.977,72.0,15.08,35.62
0.185,18.167,6.981,72.0,15.08,35.61
-0.027,18.184,6.99,72.0,15.08,35.44
0.018,18.202,7.002,72.0,15.08,35.29
0.117,18.218,7.011,72.0,15.08,35.14
0.2,18.235,7.019,72.0,15.08,34.99
0.017,18.25,7.026,72.0,15.08,34.77
-0.042,18.265,7.035,70.0,15.08,34.64
-0.036,18.28,7.044,70.0,15.08,34.6
-0.054,18.292,7.051,70.0,15.08,34.35
-0.062,18.305,7.057,70.0,15.08,34.14
-0.061,18.316,7.065,70.0,15.08,34.03
-0.055,18.328,7.074,70.0,15.08,33.92
-0.034,18.34,7.082,70.0,15.08,33.81
0.018,18.352,7.093,70.0,15.08,33.67
-0.063,18.364,7.104,70.0,15.08,33.54
0.196,18.379,7.114,70.0,15.07,33.51
-0.024,18.392,7.126,70.0,15.07,33.47
0.012,18.403,7.132,70.0,15.07,33.36
0.102,18.415,7.138,70.0,15.07,33.32
0.224,18.428,7.147,70.0,15.07,33.29
0.074,18.44,7.153,70.0,15.07,33.25
-0.024,18.454,7.152,70.0,15.07,33.19
-0.02,18.466,7.145,61.0,15.07,33.17
-0.036,18.481,7.145,61.0,15.07,33.05
-0.06,18.494,7.149,61.0,15.07,32.87
-0.067,18.506,7.161,61.0,15.07,32.82
-0.068,18.519,7.171,61.0,15.07,32.82
-0.072,18.53,7.175,61.0,15.07,32.86
-0.053,18.543,7.18,61.0,15.07,32.91
-0.022,18.558,7.183,61.0,15.07,32.98
-0.081,18.571,7.183,61.0,15.07,33.06
0.16,18.574,7.186,61.0,15.07,33.16
-0.061,18.566,7.199,61.0,15.07,33.38
-0.038,18.558,7.206,61.0,15.07,33.69
0.041,18.558,7.22,58.0,15.07,34.15
0.137,18.562,7.235,58.0,15.07,34.64
-0.024,18.571,7.247,58.0,15.07,35.01
-0.095,18.575,7.262,58.0,15.07,35.25
-0.08,18.579,7.276,58.0,15.07,35.38
-0.104,18.596,7.286,58.0,15.07,35.67
-0.115,18.611,7.296,58.0,15.07,36.22
-0.116,18.627,7.306,58.0,15.07,36.3
-0.109,18.644,7.316,58.0,15.07,35.97
-0.025,18.658,7.323,58.0,15.07,35.68
-0.103,18.668,7.331,58.0,15.05,35.52
0.131,18.675,7.34,58.0,15.07,35.42
-0.082,18.684,7.35,58.0,15.05,35.4
-0.052,18.69,7.359,58.0,15.05,35.25
0.012,18.695,7.367,58.0,15.05,35.02
0.135,18.7,7.374,64.0,15.05,34.89
0.103,18.705,7.383,64.0,15.05,34.82
-0.054,18.717,7.39,64.0,15.05,34.78
-0.052,18.741,7.397,64.0,15.05,34.72
-0.055,18.772,7.402,64.0,15.05,34.59
-0.072,18.805,7.407,64.0,15.05,34.54
-0.076,18.836,7.412,64.0,15.05,34.41
-0.073,18.912,7.417,64.0,15.05,34.21
-0.132,19.002,7.422,64.0,15.05,34.17
-0.014,19.079,7.425,64.0,15.05,34.16
-0.06,19.138,7.429,64.0,15.05,34.11
0.001,19.168,7.434,64.0,15.05,34.08
-0.054,19.183,7.438,64.0,15.05,34.06
-0.131,19.195,7.441,64.0,15.05,33.97
-0.057,19.214,7.446,64.0,15.04,33.85
0.073,19.23,7.452,60.0,15.04,33.6
0.123,19.248,7.46,60.0,15.04,33.07
-0.061,19.266,7.467,60.0,15.04,32.56
-0.076,19.28,7.479,60.0,15.04,32.25
-0.07,19.287,7.485,60.0,15.04,32.31
-0.078,19.292,7.491,60.0,15.04,32.2
-0.099,19.292,7.496,60.0,15.04,31.81
-0.102,19.262,7.499,60.0,15.04,31.66
-0.086,19.252,7.503,60.0,15.04,31.79
-0.018,19.248,7.506,60.0,15.04,31.96
-0.099,19.241,7.509,60.0,15.04,32.19
0.167,19.245,7.511,60.0,15.04,32.29
-0.071,19.244,7.513,60.0,15.04,32.6
-0.024,19.254,7.516,60.0,15.04,32.93
0.057,19.28,7.518,60.0,15.04,33.54
0.197,19.302,7.52,88.0,15.04,34.14
0.16,19.325,7.522,88.0,15.04,34.7
0.05,19.318,7.525,88.0,15.04,35.24
0.072,19.304,7.526,88.0,15.04,35.65
0.068,19.352,7.53,88.0,15.04,36.08
0.063,19.356,7.532,88.0,15.04,36.38
0.122,19.316,7.532,88.0,15.04,36.68
0.076,19.274,7.532,88.0,15.04,36.49
0.196,19.231,7.522,88.0,15.04,35.95
0.15,19.199,7.511,88.0,15.04,36.19
0.073,19.162,7.512,88.0,15.04,36.33
0.125,19.15,7.504,88.0,15.04,36.11
0.232,19.164,7.502,88.0,15.04,35.55
0.249,19.323,7.499,88.0,15.04,35.21
0.062,19.385,7.496,88.0,15.04,35.11
0.051,19.414,7.489,88.0,15.04,35.02
0.045,19.42,7.482,88.0,15.04,34.68
0.026,19.415,7.478,88.0,15.04,34.0
0.032,19.416,7.491,88.0,15.04,33.6
0.086,19.433,7.495,88.0,15.04,33.55
-0.013,19.463,7.494,88.0,15.04,33.53
0.256,19.496,7.493,75.0,15.03,33.36
0.02,19.529,7.49,75.0,15.04,33.26
0.059,19.558,7.491,75.0,15.03,32.87
0.151,19.57,7.493,75.0,15.03,32.62
0.275,19.558,7.493,75.0,15.03,32.86
0.134,19.538,7.493,75.0,15.03,33.02
0.033,19.529,7.49,75.0,15.03,32.99
0.041,19.553,7.49,75.0,15.03,32.88
0.023,19.584,7.49,75.0,15.03,32.95
0.03,19.616,7.488,75.0,15.03,33.03
0.081,19.632,7.488,55.0,15.03,33.12
-0.022,19.637,7.486,55.0,15.03,33.24
0.229,19.651,7.485,55.0,15.03,33.33
-0.003,19.671,7.485,55.0,15.03,33.42
0.025,19.693,7.485,55.0,15.03,33.47
0.109,19.709,7.483,55.0,15.02,33.49
0.216,19.724,7.483,55.0,15.02,33.52
0.058,19.743,7.483,55.0,15.02,33.72
-0.034,19.758,7.48,55.0,15.02,34.01
-0.033,19.768,7.48,55.0,15.02,34.37
-0.035,19.776,7.479,55.0,15.02,34.63
0.001,19.785,7.478,55.0,15.02,34.79
-0.095,19.791,7.478,55.0,15.02,35.1
0.178,19.799,7.476,55.0,15.02,35.43
-0.066,19.803,7.475,55.0,15.02,35.79
-0.028,19.806,7.475,55.0,15.02,36.06
0.054,19.811,7.474,55.0,15.02,36.25
0.146,19.817,7.473,55.0,15.02,36.48
0.016,19.824,7.471,55.0,15.02,36.72
-0.039,19.829,7.47,55.0,15.02,36.92
-0.042,19.833,7.47,55.0,15.02,36.97
-0.058,19.835,7.47,55.0,15.02,36.9
0.004,19.838,7.47,55.0,15.02,36.86
-0.055,19.839,7.468,55.0,15.02,36.85
0.084,19.841,7.468,55.0,15.02,36.8
0.026,19.843,7.468,55.0,15.02,36.77
-0.048,19.844,7.466,55.0,15.02,36.74
0.004,19.848,7.465,55.0,15.02,36.69
0.107,19.855,7.465,80.0,15.02,36.66
0.115,19.858,7.466,80.0,15.02,36.63
-0.032,19.858,7.468,80.0,15.02,36.63
-0.037,19.858,7.468,80.0,15.02,36.63
-0.05,19.86,7.468,80.0,15.02,36.57
-0.067,19.86,7.468,80.0,15.02,36.46
-0.02,19.86,7.468,80.0,15.02,36.43
-0.04,19.86,7.47,80.0,15.02,36.42
-0.022,19.862,7.47,80.0,15.02,36.42
0.115,19.863,7.471,80.0,15.02,36.43
-0.057,19.866,7.473,80.0,15.02,36.43
-0.009,19.867,7.473,80.0,15.02,36.42
0.089,19.867,7.474,76.0,15.02,36.41
0.126,19.87,7.475,76.0,15.02,36.41
-0.032,19.867,7.475,76.0,15.02,36.41
-0.055,19.867,7.476,76.0,15.02,36.42
-0.069,19.867,7.478,76.0,15.02,36.39
-0.095,19.866,7.482,76.0,15.02,36.28
-0.103,19.862,7.486,76.0,15.0,36.2
-0.092,19.862,7.49,76.0,15.0,36.1
-0.109,19.862,7.494,76.0,15.0,35.77
-0.117,19.862,7.496,76.0,15.0,35.48
0.141,19.86,7.498,76.0,15.0,35.44
-0.096,19.861,7.499,76.0,15.0,35.32
-0.07,19.863,7.499,76.0,15.0,35.27
0.011,19.866,7.5,70.0,15.0,34.86
0.108,19.868,7.5,70.0,15.0,34.86
-0.018,19.871,7.503,70.0,15.0,34.77
-0.087,19.876,7.504,70.0,15.0,34.9
-0.086,19.878,7.505,70.0,15.0,35.24
-0.109,19.881,7.505,70.0,15.0,35.13
-0.119,19.886,7.508,70.0,15.0,34.82
-0.122,19.89,7.508,70.0,15.0,34.47
-0.104,19.893,7.509,70.0,14.99,34.25
-0.046,19.895,7.509,70.0,14.99,34.23
-0.137,19.897,7.51,70.0,14.99,34.29
0.126,19.9,7.51,70.0,14.99,34.31
-0.091,19.903,7.512,70.0,14.99,34.28
-0.056,19.907,7.512,70.0,14.99,34.28
0.03,19.912,7.512,66.0,14.99,34.3
0.127,19.912,7.513,66.0,14.99,34.28
0.007,19.913,7.515,66.0,14.99,34.3
-0.067,19.915,7.515,66.0,14.99,34.33
-0.07,19.915,7.515,66.0,14.99,34.42
-0.088,19.917,7.516,66.0,14.99,34.41
-0.105,19.917,7.517,66.0,14.99,34.39
-0.109,19.916,7.517,66.0,14.99,34.43
-0.102,19.913,7.516,66.0,14.99,34.4
-0.022,19.911,7.515,66.0,14.99,34.39
-0.105,19.907,7.515,66.0,14.99,34.37
0.127,19.903,7.515,66.0,14.99,34.27
-0.09,19.898,7.512,66.0,14.99,34.24
-0.059,19.893,7.512,66.0,14.99,34.26
0.005,19.888,7.51,66.0,14.99,34.27
0.11,19.881,7.51,64.0,14.99,34.3
0.078,19.876,7.509,64.0,14.99,34.33
-0.064,19.871,7.508,64.0,14.99,34.32
-0.064,19.866,7.51,64.0,14.99,34.27
-0.084,19.861,7.508,64.0,14.99,34.18
-0.097,19.855,7.508,64.0,14.99,34.06
-0.104,19.849,7.505,64.0,14.99,34.08
-0.066,19.842,7.505,64.0,14.99,34.09
-0.051,19.836,7.503,64.0,14.99,34.07
-0.085,19.829,7.503,64.0,14.99,34.11
0.097,19.824,7.5,64.0,14.99,34.1
-0.097,19.819,7.498,64.0,14.99,34.09
-0.052,19.811,7.496,64.0,14.99,34.08
0.04,19.804,7.495,69.0,14.99,33.99
0.097,19.797,7.491,69.0,14.99,33.93
-0.066,19.79,7.489,69.0,14.99,33.94
-0.099,19.782,7.486,69.0,14.99,33.93
-0.113,19.774,7.484,69.0,14.99,33.92
-0.126,19.767,7.483,69.0,14.99,33.87
-0.098,19.76,7.48,69.0,14.99,34.05
-0.075,19.752,7.478,69.0,14.99,34.39
-0.121,19.743,7.478,69.0,14.99,34.65
0.098,19.735,7.478,69.0,14.98,34.83
-0.102,19.725,7.475,69.0,14.99,35.03
-0.055,19.718,7.474,69.0,14.99,35.21
0.03,19.71,7.471,76.0,14.98,35.29
0.094,19.702,7.47,76.0,14.98,35.26
-0.04,19.694,7.469,76.0,14.98,35.2
-0.066,19.687,7.466,76.0,14.98,35.21
-0.068,19.68,7.465,76.0,14.98,35.27
-0.083,19.671,7.463,76.0,14.98,35.19
0.002,19.663,7.46,76.0,14.98,35.14
-0.092,19.656,7.459,76.0,14.98,35.12
0.144,19.648,7.458,76.0,14.98,35.12
-0.063,19.64,7.455,76.0,14.98,35.09
-0.042,19.63,7.455,76.0,14.98,35.02
0.031,19.622,7.455,76.0,14.98,34.99
0.129,19.613,7.458,80.0,14.98,34.96
0.08,19.606,7.464,80.0,14.98,34.94
-0.024,19.596,7.476,80.0,14.98,34.94
-0.032,19.589,7.49,80.0,14.98,34.94
-0.05,19.581,7.499,80.0,14.97,34.85
0.019,19.574,7.504,80.0,14.97,34.69
-0.04,19.564,7.505,80.0,14.97,34.57
0.057,19.555,7.5,80.0,14.97,34.55
0.04,19.549,7.499,80.0,14.97,34.6
-0.036,19.54,7.498,80.0,14.97,34.46
0.023,19.533,7.494,80.0,14.97,34.24
0.124,19.524,7.491,82.0,14.97,34.1
0.123,19.512,7.489,82.0,14.97,34.15
-0.021,19.506,7.486,82.0,14.97,34.31
-0.035,19.499,7.486,82.0,14.97,34.34
-0.015,19.492,7.484,82.0,14.97,34.29
0.015,19.483,7.483,82.0,14.97,34.08
-0.061,19.476,7.48,82.0,14.97,33.94
0.064,19.469,7.479,82.0,14.97,33.93
0.0,19.461,7.478,82.0,14.97,34.01
-0.058,19.453,7.476,82.0,14.97,34.04
0.003,19.447,7.475,82.0,14.97,34.04
0.107,19.439,7.473,85.0,14.97,34.0
0.096,19.433,7.474,85.0,14.97,33.95
-0.025,19.426,7.478,85.0,14.97,33.95
-0.025,19.419,7.48,85.0,14.97,33.97
-0.012,19.412,7.479,85.0,14.97,34.0
0.012,19.406,7.478,85.0,14.97,33.95
-0.086,19.399,7.474,85.0,14.97,34.02
0.155,19.394,7.47,85.0,14.97,34.08
-0.064,19.387,7.466,85.0,14.97,34.05
-0.018,19.38,7.464,85.0,14.97,34.0
0.07,19.374,7.46,89.0,14.97,33.96
0.127,19.366,7.458,89.0,14.97,33.9
-0.009,19.361,7.455,89.0,14.97,33.83
-0.028,19.354,7.453,89.0,14.97,33.77
-0.033,19.349,7.45,89.0,14.97,33.79
0.044,19.342,7.448,89.0,14.97,33.67
-0.076,19.336,7.445,89.0,14.97,33.57
0.17,19.332,7.444,89.0,14.97,33.58
-0.054,19.327,7.441,89.0,14.97,33.62
-0.026,19.323,7.44,89.0,14.97,33.64
0.05,19.319,7.439,89.0,14.97,33.65
0.138,19.318,7.438,89.0,14.97,33.65
0.052,19.318,7.435,89.0,14.97,33.66
-0.009,19.318,7.435,89.0,14.97,33.67
-0.014,19.318,7.435,89.0,14.97,33.73
-0.035,19.319,7.433,89.0,14.97,33.7
0.016,19.322,7.433,89.0,14.97,33.66
-0.014,19.327,7.433,89.0,14.97,33.7
-0.003,19.329,7.434,89.0,14.96,33.74
0.108,19.334,7.435,89.0,14.96,33.76
-0.048,19.341,7.435,89.0,14.96,33.76
0.0,19.349,7.435,89.0,14.96,33.78
0.086,19.356,7.438,80.0,14.96,33.78
0.108,19.364,7.439,80.0,14.96,33.78
-0.021,19.37,7.44,80.0,14.96,33.83
-0.039,19.376,7.441,80.0,14.96,33.88
-0.062,19.381,7.443,80.0,14.96,34.15
-0.078,19.386,7.445,80.0,14.96,34.46
-0.006,19.391,7.448,80.0,14.96,34.74
-0.085,19.396,7.449,80.0,14.96,35.01
0.114,19.4,7.45,80.0,14.96,35.41
-0.032,19.401,7.454,80.0,14.96,35.72
-0.052,19.403,7.455,80.0,14.96,35.9
0.025,19.4,7.456,80.0,14.96,36.09
0.096,19.421,7.459,79.0,14.96,36.36
0.072,19.495,7.461,79.0,14.96,36.58
-0.011,19.57,7.465,79.0,14.96,36.59
-0.012,19.599,7.466,79.0,14.94,36.52
-0.032,19.594,7.47,79.0,14.94,36.39
-0.041,19.578,7.471,79.0,14.94,36.04
0.027,19.554,7.473,79.0,14.94,36.02
-0.037,19.533,7.473,79.0,14.94,35.86
0.099,19.514,7.475,79.0,14.94,35.73
0.032,19.509,7.476,79.0,14.94,35.49
-0.025,19.501,7.478,79.0,14.94,35.23
0.024,19.479,7.478,79.0,14.94,35.05
0.103,19.485,7.478,77.0,14.94,35.1
0.077,19.502,7.478,77.0,14.94,35.05
-0.047,19.509,7.478,77.0,14.94,35.12
-0.049,19.549,7.479,77.0,14.94,35.3
-0.075,19.658,7.478,77.0,14.94,35.3
-0.113,19.717,7.479,77.0,14.94,34.97
-0.134,19.723,7.48,77.0,14.94,34.9
-0.058,19.728,7.48,77.0,14.94,35.06
-0.16,19.704,7.481,77.0,14.94,34.99
0.073,19.67,7.483,77.0,14.94,34.69
-0.139,19.65,7.483,77.0,14.94,34.51
-0.101,19.626,7.483,77.0,14.94,34.48
-0.029,19.603,7.483,77.0,14.94,34.35
0.073,19.575,7.483,72.0,14.94,34.18
0.003,19.549,7.483,72.0,14.94,34.01
-0.099,19.52,7.483,72.0,14.94,33.88
-0.09,19.52,7.483,72.0,14.94,33.74
-0.111,19.564,7.483,72.0,14.94,33.59
-0.122,19.553,7.483,72.0,14.94,33.42
-0.126,19.551,7.483,72.0,14.94,33.39
-0.124,19.567,7.483,72.0,14.94,33.36
-0.095,19.559,7.483,72.0,14.94,33.34
-0.058,19.553,7.483,72.0,14.94,33.33
-0.124,19.549,7.483,72.0,14.94,33.33
0.095,19.546,7.483,72.0,14.94,33.31
-0.097,19.523,7.483,72.0,14.94,33.26
-0.051,19.488,7.483,72.0,14.94,33.23
0.037,19.478,7.484,64.0,14.94,33.22
0.106,19.485,7.485,64.0,14.94,33.19
-0.041,19.509,7.486,64.0,14.94,33.15
-0.081,19.531,7.488,64.0,14.94,33.14
-0.08,19.553,7.49,64.0,14.94,33.21
-0.099,19.584,7.491,64.0,14.94,33.11
-0.105,19.616,7.493,64.0,14.94,33.0
-0.104,19.651,7.496,64.0,14.94,32.97
-0.104,19.736,7.499,64.0,14.94,32.96
-0.024,19.924,7.501,64.0,14.94,32.96
-0.097,19.994,7.505,64.0,14.94,32.99
0.101,20.004,7.508,64.0,14.93,33.01
-0.077,20.018,7.511,64.0,14.94,32.95
-0.054,20.046,7.513,64.0,14.94,32.93
0.024,20.079,7.516,64.0,14.93,32.86
0.153,20.113,7.52,63.0,14.93,32.8
0.132,20.15,7.522,63.0,14.93,32.78
-0.014,20.2,7.522,63.0,14.93,32.93
-0.006,20.246,7.525,63.0,14.93,33.26
-0.017,20.291,7.528,63.0,14.93,33.51
-0.034,20.33,7.533,63.0,14.93,33.66
-0.039,20.366,7.538,63.0,14.93,33.97
0.034,20.4,7.541,63.0,14.93,34.24
-0.036,20.435,7.545,63.0,14.93,34.46
0.186,20.469,7.545,63.0,14.93,34.62
0.0,20.498,7.542,63.0,14.93,34.77
-0.002,20.527,7.542,63.0,14.93,35.01
0.055,20.552,7.543,63.0,14.93,35.26
0.158,20.579,7.545,63.0,14.92,35.53
0.118,20.603,7.546,63.0,14.92,35.77
-0.004,20.624,7.547,63.0,14.93,35.97
0.001,20.643,7.548,63.0,14.92,36.12
-0.007,20.661,7.55,63.0,14.92,36.23
-0.019,20.68,7.55,63.0,14.93,36.26
0.013,20.698,7.552,63.0,14.92,36.26
0.033,20.714,7.552,63.0,14.92,36.23
-0.007,20.725,7.552,63.0,14.92,36.21
0.221,20.735,7.552,63.0,14.92,36.17
0.008,20.744,7.553,63.0,14.92,36.07
0.053,20.751,7.555,63.0,14.92,36.01
0.149,20.756,7.555,63.0,14.92,35.9
0.198,20.761,7.555,63.0,14.92,35.82
0.046,20.766,7.555,63.0,14.92,35.78
0.023,20.771,7.552,63.0,14.92,35.71
0.025,20.772,7.552,63.0,14.92,35.67
0.004,20.772,7.552,63.0,14.92,35.55
-0.005,20.771,7.551,63.0,14.92,35.45
-0.012,20.768,7.55,74.0,14.92,35.38
-0.009,20.767,7.548,74.0,14.92,35.25
0.061,20.765,7.547,74.0,14.92,35.18
-0.034,20.761,7.547,74.0,14.92,35.04
0.219,20.756,7.547,74.0,14.92,34.86
-0.005,20.751,7.545,74.0,14.92,34.63
0.025,20.742,7.543,74.0,14.92,34.5
0.102,20.735,7.543,74.0,14.92,34.38
0.205,20.725,7.542,74.0,14.92,34.33
0.1,20.714,7.542,74.0,14.92,34.33
0.002,20.702,7.541,74.0,14.92,34.3
0.011,20.692,7.54,65.0,14.92,34.32
-0.008,20.682,7.54,65.0,14.92,34.22
-0.024,20.674,7.537,65.0,14.92,34.06
-0.03,20.665,7.537,65.0,14.92,33.98
-0.03,20.655,7.536,65.0,14.92,33.92
-0.029,20.647,7.535,65.0,14.92,33.9
0.007,20.638,7.533,65.0,14.92,33.88
0.008,20.629,7.532,65.0,14.92,33.86
-0.007,20.622,7.532,65.0,14.92,33.81
0.16,20.614,7.531,65.0,14.92,33.8
-0.019,20.609,7.53,65.0,14.92,33.98
0.021,20.604,7.53,65.0,14.92,34.22
0.116,20.601,7.53,65.0,14.92,34.43
0.167,20.597,7.527,65.0,14.92,34.6
-0.004,20.594,7.527,65.0,14.92,34.81
-0.036,20.592,7.527,59.0,14.92,35.02
-0.035,20.589,7.527,59.0,14.92,35.24
-0.06,20.587,7.527,59.0,14.92,35.35
-0.069,20.584,7.526,59.0,14.92,35.52
-0.074,20.583,7.526,59.0,14.92,35.71
-0.072,20.582,7.527,59.0,14.92,35.86
-0.014,20.579,7.527,59.0,14.92,36.03
-0.043,20.577,7.526,59.0,14.92,36.19
0.055,20.573,7.526,59.0,14.92,36.29
0.081,20.572,7.526,59.0,14.91,36.38
-0.021,20.567,7.525,59.0,14.91,36.38
0.033,20.562,7.525,59.0,14.91,36.33
0.138,20.56,7.525,59.0,14.91,36.22
0.15,20.555,7.526,59.0,14.91,36.13
-0.007,20.548,7.525,59.0,14.91,36.05
-0.012,20.541,7.525,62.0,14.91,35.94
-0.013,20.533,7.525,62.0,14.91,35.84
-0.031,20.527,7.525,62.0,14.91,35.59
-0.042,20.518,7.525,62.0,14.91,35.42
-0.046,20.511,7.525,62.0,14.91,35.25
-0.048,20.502,7.522,62.0,14.91,35.1
-0.029,20.496,7.522,62.0,14.91,35.0
0.025,20.486,7.522,62.0,14.91,34.87
-0.055,20.476,7.522,62.0,14.91,34.71
0.201,20.468,7.52,62.0,14.91,34.56
-0.014,20.459,7.52,62.0,14.89,34.43
0.023,20.449,7.52,62.0,14.91,34.28
0.111,20.439,7.517,62.0,14.91,34.11
0.207,20.429,7.517,62.0,14.89,33.97
0.055,20.419,7.515,62.0,14.89,33.85
-0.015,20.409,7.515,62.0,14.89,33.75
-0.004,20.396,7.513,60.0,14.89,33.71
-0.021,20.387,7.512,60.0,14.89,33.56
-0.037,20.377,7.511,60.0,14.89,33.41
-0.042,20.367,7.51,60.0,14.89,33.35
-0.047,20.354,7.508,60.0,14.89,33.29
-0.054,20.343,7.506,60.0,14.89,33.27
0.018,20.332,7.505,60.0,14.89,33.26
-0.061,20.321,7.504,60.0,14.89,33.27
0.17,20.309,7.503,60.0,14.89,33.32
-0.048,20.3,7.501,60.0,14.89,33.38
-0.032,20.289,7.499,60.0,14.89,33.55
0.027,20.28,7.498,60.0,14.89,33.78
0.14,20.269,7.495,60.0,14.89,34.01
0.09,20.261,7.494,60.0,14.89,34.23
-0.058,20.256,7.493,60.0,14.89,34.49
-0.058,20.25,7.49,60.0,14.89,34.81
-0.064,20.246,7.49,60.0,14.89,35.04
-0.079,20.245,7.488,60.0,14.89,35.2
-0.081,20.245,7.488,60.0,14.89,35.45
-0.064,20.245,7.485,60.0,14.89,35.68
-0.011,20.249,7.485,60.0,14.89,35.87
-0.088,20.254,7.483,60.0,14.89,36.01
0.188,20.259,7.483,60.0,14.89,36.07
-0.043,20.264,7.483,60.0,14.89,36.05
-0.001,20.271,7.481,60.0,14.89,35.97
0.086,20.28,7.48,68.0,14.89,35.91
0.173,20.289,7.48,68.0,14.89,35.83
0.025,20.297,7.479,68.0,14.89,35.74
-0.035,20.305,7.478,68.0,14.89,35.59
-0.029,20.313,7.478,68.0,14.89,35.53
-0.042,20.321,7.478,68.0,14.89,35.38
-0.051,20.328,7.478,68.0,14.89,35.22
-0.052,20.336,7.475,68.0,14.89,35.11
-0.025,20.343,7.475,68.0,14.89,35.01
0.013,20.349,7.475,68.0,14.89,34.99
-0.064,20.356,7.475,68.0,14.89,34.95
0.179,20.363,7.473,68.0,14.89,34.85
-0.03,20.368,7.475,68.0,14.89,34.71
0.012,20.373,7.474,68.0,14.89,34.58
0.108,20.376,7.474,67.0,14.89,34.47
0.192,20.38,7.473,67.0,14.89,34.42
0.027,20.38,7.471,67.0,14.89,34.32
-0.022,20.381,7.469,67.0,14.89,34.14
-0.015,20.38,7.47,67.0,14.89,34.03
-0.041,20.378,7.468,67.0,14.89,33.73
-0.067,20.377,7.468,67.0,14.89,33.33
-0.069,20.376,7.465,67.0,14.89,33.17
-0.07,20.372,7.464,67.0,14.89,33.08
-0.014,20.37,7.463,67.0,14.89,32.95
-0.12,20.366,7.463,67.0,14.89,32.78
0.131,20.361,7.46,67.0,14.89,32.62
-0.101,20.357,7.458,67.0,14.89,32.62
-0.081,20.353,7.458,67.0,14.89,32.62
-0.01,20.346,7.455,65.0,14.89,32.72
0.086,20.341,7.454,65.0,14.89,32.97
-0.05,20.336,7.453,65.0,14.89,33.3
-0.165,20.331,7.451,65.0,14.89,33.59
-0.166,20.323,7.45,65.0,14.89,33.83
-0.185,20.317,7.456,65.0,14.89,34.0
-0.198,20.311,7.466,65.0,14.89,34.18
-0.198,20.305,7.477,65.0,14.89,34.38
-0.149,20.296,7.485,65.0,14.89,34.64
-0.086,20.287,7.481,65.0,14.89,34.95
-0.131,20.28,7.476,65.0,14.89,35.24
0.133,20.27,7.473,65.0,14.89,35.5
-0.077,20.261,7.471,65.0,14.89,35.6
-0.029,20.252,7.468,65.0,14.88,35.63
0.067,20.242,7.464,67.0,14.88,35.66
0.143,20.232,7.461,67.0,14.88,35.68
0.0,20.221,7.459,67.0,14.88,35.67
-0.032,20.21,7.456,67.0,14.88,35.64
-0.022,20.192,7.454,67.0,14.88,35.61
-0.037,20.184,7.453,67.0,14.88,35.47
-0.044,20.178,7.451,67.0,14.88,35.29
-0.042,20.167,7.449,67.0,14.88,35.2
-0.04,20.154,7.446,67.0,14.88,35.13
-0.026,20.143,7.444,67.0,14.88,35.06
0.049,20.13,7.441,67.0,14.88,34.96
-0.039,20.118,7.44,67.0,14.88,34.83
0.216,20.107,7.438,67.0,14.88,34.59
-0.004,20.095,7.435,67.0,14.88,34.58
0.03,20.082,7.433,67.0,14.88,34.47
0.107,20.07,7.43,67.0,14.88,34.38
0.213,20.056,7.429,67.0,14.88,34.31
0.097,20.043,7.426,67.0,14.87,34.26
0.0,20.031,7.425,67.0,14.87,34.19
0.006,20.019,7.423,60.0,14.88,34.1
-0.008,20.006,7.421,60.0,14.87,33.88
-0.028,19.994,7.418,60.0,14.87,33.66
-0.039,19.983,7.416,60.0,14.87,33.58
-0.047,19.97,7.414,60.0,14.87,33.54
-0.053,19.959,7.412,60.0,14.87,33.57
-0.056,19.947,7.411,60.0,14.87,33.65
-0.019,19.936,7.408,60.0,14.87,33.79
-0.031,19.924,7.406,60.0,14.87,34.03
0.003,19.912,7.403,60.0,14.87,34.4
0.106,19.902,7.402,60.0,14.87,34.74
-0.047,19.889,7.399,60.0,14.87,35.06
-0.003,19.879,7.397,60.0,14.87,35.37
0.093,19.869,7.396,56.0,14.87,35.7
0.138,19.86,7.393,56.0,14.87,36.0
-0.02,19.849,7.391,56.0,14.87,36.29
-0.034,19.84,7.389,56.0,14.87,36.56
-0.029,19.827,7.388,56.0,14.87,36.78
-0.039,19.817,7.386,56.0,14.87,36.87
-0.047,19.81,7.384,56.0,14.87,36.91
-0.045,19.8,7.383,56.0,14.87,36.89
-0.042,19.79,7.381,56.0,14.87,36.8
-0.038,19.78,7.378,56.0,14.87,36.72
0.034,19.772,7.378,56.0,14.87,36.61
-0.029,19.763,7.376,56.0,14.87,36.46
0.204,19.753,7.376,56.0,14.87,36.33
0.003,19.743,7.376,56.0,14.87,36.23
0.014,19.735,7.376,56.0,14.87,36.13
0.076,19.725,7.373,56.0,14.87,36.06
0.191,19.717,7.372,56.0,14.87,35.97
0.159,19.708,7.369,56.0,14.87,35.92
0.013,19.7,7.368,56.0,14.87,35.81
0.028,19.692,7.368,56.0,14.87,35.7
0.03,19.683,7.366,56.0,14.87,35.53
0.01,19.675,7.363,56.0,14.87,35.29
0.0,19.666,7.363,56.0,14.87,35.13
-0.002,19.658,7.361,59.0,14.87,34.97
-0.004,19.65,7.359,59.0,14.87,34.85
-0.005,19.642,7.357,59.0,14.87,34.75
0.002,19.633,7.356,59.0,14.87,34.64
0.065,19.627,7.354,59.0,14.87,34.51
-0.024,19.618,7.353,59.0,14.87,34.4
0.227,19.611,7.351,59.0,14.87,34.31
0.012,19.603,7.351,59.0,14.87,34.24
0.043,19.596,7.348,59.0,14.87,34.15
0.123,19.589,7.347,59.0,14.87,34.09
0.241,19.581,7.346,59.0,14.87,34.03
0.105,19.574,7.344,59.0,14.87,33.99
0.003,19.566,7.342,59.0,14.87,33.91
0.012,19.559,7.341,55.0,14.87,33.88
0.001,19.55,7.341,55.0,14.87,33.77
-0.016,19.544,7.338,55.0,14.87,33.61
-0.026,19.536,7.336,55.0,14.86,33.57
-0.028,19.529,7.334,55.0,14.87,33.54
-0.031,19.523,7.333,55.0,14.87,33.54
-0.033,19.515,7.333,55.0,14.86,33.54
0.016,19.509,7.331,55.0,14.86,33.54
0.001,19.503,7.331,55.0,14.86,33.5
0.048,19.496,7.329,55.0,14.86,33.48
0.108,19.489,7.327,55.0,14.86,33.47
-0.019,19.483,7.325,55.0,14.86,33.47
0.024,19.477,7.324,55.0,14.86,33.52
0.134,19.469,7.322,56.0,14.86,33.62
0.174,19.463,7.32,56.0,14.86,33.78
-0.021,19.456,7.319,56.0,14.86,33.99
-0.051,19.449,7.316,56.0,14.86,34.24
-0.053,19.443,7.316,56.0,14.86,34.53
-0.07,19.436,7.314,56.0,14.86,34.72
-0.083,19.431,7.312,56.0,14.86,35.0
-0.088,19.423,7.311,56.0,14.86,35.34
-0.093,19.419,7.31,56.0,14.86,35.64
-0.088,19.409,7.306,56.0,14.86,35.98
-0.018,19.403,7.306,56.0,14.86,36.28
-0.075,19.4,7.306,56.0,14.86,36.56
-0.058,19.392,7.304,56.0,14.86,36.91
-0.079,19.385,7.304,56.0,14.86,37.23
-0.073,19.379,7.301,56.0,14.86,37.49
-0.021,19.372,7.3,56.0,14.85,37.68
0.081,19.365,7.299,56.0,14.86,37.79
-0.004,19.36,7.299,56.0,14.85,37.61
-0.074,19.356,7.299,56.0,14.85,37.58
-0.045,19.349,7.296,56.0,14.85,37.09
-0.036,19.344,7.299,56.0,14.85,36.5
-0.03,19.336,7.299,56.0,14.85,36.42
-0.023,19.332,7.301,56.0,14.85,36.46
-0.006,19.324,7.305,56.0,14.85,36.66
0.003,19.317,7.309,56.0,14.85,36.91
0.051,19.312,7.308,56.0,14.85,36.93
0.041,19.304,7.3,56.0,14.85,36.95
0.105,19.299,7.3,56.0,14.85,36.96
0.16,19.292,7.301,56.0,14.85,36.77
0.042,19.284,7.307,56.0,14.85,36.47
0.092,19.279,7.316,56.0,14.85,36.22
0.205,19.272,7.317,56.0,14.85,36.03
0.244,19.267,7.327,56.0,14.85,35.76
0.054,19.262,7.333,56.0,14.85,35.43
0.03,19.257,7.332,56.0,14.85,35.11
0.032,19.249,7.327,56.0,14.85,34.84
0.015,19.245,7.321,56.0,14.85,34.48
0.003,19.24,7.316,56.0,14.85,34.22
-0.003,19.235,7.317,56.0,14.85,34.0
-0.008,19.23,7.321,56.0,14.85,33.86
0.07,19.225,7.324,56.0,14.85,33.78
-0.015,19.22,7.326,56.0,14.85,33.59
0.221,19.215,7.324,56.0,14.85,33.36
-0.002,19.21,7.321,56.0,14.85,33.32
0.023,19.205,7.319,56.0,14.85,33.3
0.09,19.2,7.316,56.0,14.85,33.25
0.216,19.192,7.314,56.0,14.85,33.16
0.153,19.189,7.312,56.0,14.85,33.1
-0.008,19.184,7.311,56.0,14.85,33.03
-0.005,19.18,7.311,63.0,14.85,33.0
-0.013,19.175,7.309,63.0,14.85,33.0
-0.034,19.171,7.306,63.0,14.85,32.87
-0.046,19.169,7.305,63.0,14.85,32.86
-0.046,19.166,7.304,63.0,14.85,32.86
0.019,19.164,7.302,63.0,14.85,32.87
-0.081,19.162,7.301,63.0,14.85,32.87
0.175,19.161,7.301,63.0,14.85,32.89
-0.056,19.161,7.299,63.0,14.85,32.98
-0.028,19.162,7.299,63.0,14.85,33.12
0.045,19.164,7.296,67.0,14.85,33.34
0.158,19.165,7.296,67.0,14.85,33.6
0.032,19.167,7.295,67.0,14.85,33.91
-0.073,19.17,7.294,67.0,14.85,34.18
-0.068,19.174,7.294,67.0,14.85,34.51
-0.084,19.177,7.292,67.0,14.85,34.71
-0.085,19.182,7.291,67.0,14.85,34.89
-0.025,19.187,7.291,67.0,14.85,35.14
-0.122,19.192,7.291,67.0,14.85,35.37
0.158,19.197,7.292,67.0,14.85,35.6
-0.093,19.202,7.292,67.0,14.85,35.79
-0.061,19.207,7.292,67.0,14.85,35.94
0.017,19.212,7.294,77.0,14.85,36.06
0.119,19.217,7.294,77.0,14.85,36.18
0.003,19.227,7.294,77.0,14.85,36.3
-0.073,19.231,7.294,77.0,14.85,36.37
-0.072,19.232,7.294,77.0,14.85,36.4
-0.091,19.237,7.295,77.0,14.85,36.37
-0.085,19.242,7.296,77.0,14.85,36.26
-0.011,19.247,7.296,77.0,14.85,36.23
-0.107,19.249,7.299,77.0,14.85,36.17
0.167,19.253,7.299,77.0,14.85,36.14
-0.084,19.257,7.301,77.0,14.85,36.04
-0.052,19.259,7.301,77.0,14.85,36.04
0.016,19.261,7.301,77.0,14.83,35.97
0.124,19.263,7.301,76.0,14.83,35.92
0.028,19.266,7.304,76.0,14.83,35.87
-0.063,19.266,7.304,76.0,14.83,35.83
-0.054,19.267,7.304,76.0,14.83,35.81
-0.069,19.268,7.304,76.0,14.83,35.72
-0.084,19.268,7.306,76.0,14.83,35.62
-0.089,19.268,7.306,76.0,14.83,35.56
-0.009,19.268,7.306,76.0,14.83,35.51
-0.085,19.268,7.306,76.0,14.83,35.5
0.128,19.267,7.306,76.0,14.83,35.5
-0.051,19.266,7.31,76.0,14.83,35.47
-0.058,19.264,7.328,76.0,14.83,35.43
0.001,19.263,7.342,76.0,14.83,35.41
0.111,19.261,7.349,70.0,14.83,35.39
0.088,19.261,7.352,70.0,14.83,35.38
-0.059,19.258,7.354,70.0,14.83,35.38
-0.057,19.256,7.358,70.0,14.83,35.38
-0.066,19.253,7.358,70.0,14.83,35.35
-0.08,19.249,7.358,70.0,14.83,35.22
-0.086,19.248,7.359,70.0,14.83,35.11
-0.082,19.245,7.359,70.0,14.83,34.92
-0.08,19.238,7.361,70.0,14.83,34.77
-0.057,19.236,7.361,70.0,14.83,34.78
-0.013,19.235,7.358,70.0,14.83,34.73
0.166,19.23,7.358,70.0,14.83,34.61
0.166,19.227,7.358,70.0,14.83,34.45
-0.053,19.224,7.358,70.0,14.83,34.37
-0.017,19.22,7.358,64.0,14.83,34.36
0.07,19.215,7.358,64.0,14.82,34.33
0.161,19.21,7.358,64.0,14.83,34.26
0.003,19.207,7.356,64.0,14.83,34.27
-0.061,19.202,7.356,64.0,14.83,34.24
-0.05,19.197,7.356,64.0,14.82,34.22
-0.068,19.192,7.353,64.0,14.82,34.1
-0.078,19.187,7.353,64.0,14.82,34.01
-0.084,19.182,7.352,64.0,14.82,33.98
-0.084,19.177,7.351,64.0,14.82,33.96
-0.082,19.172,7.351,64.0,14.82,33.98
-0.076,19.167,7.348,64.0,14.82,33.98
0.0,19.162,7.348,64.0,14.82,33.98
-0.085,19.157,7.346,64.0,14.82,33.95
0.161,19.153,7.346,64.0,14.82,33.93
-0.063,19.146,7.346,64.0,14.82,33.95
-0.028,19.14,7.343,64.0,14.82,33.93
0.044,19.135,7.343,64.0,14.82,33.93
0.161,19.13,7.352,53.0,14.82,33.92
0.09,19.123,7.347,53.0,14.82,33.92
-0.046,19.118,7.339,53.0,14.82,33.9
-0.037,19.113,7.334,53.0,14.82,33.9
-0.043,19.106,7.337,53.0,14.82,33.85
-0.059,19.1,7.333,53.0,14.82,33.67
-0.063,19.095,7.326,53.0,14.82,33.62
-0.063,19.09,7.321,53.0,14.82,33.66
-0.06,19.085,7.323,53.0,14.82,33.68
-0.039,19.08,7.352,53.0,14.82,33.59
0.003,19.075,7.372,53.0,14.82,33.59
-0.071,19.07,7.368,53.0,14.82,33.56
0.172,19.066,7.349,53.0,14.82,33.49
-0.044,19.061,7.332,53.0,14.82,33.4
-0.012,19.056,7.309,53.0,14.82,33.42
0.082,19.051,7.302,53.0,14.82,33.52
0.176,19.046,7.296,53.0,14.82,33.61
0.008,19.041,7.283,53.0,14.82,33.76
-0.059,19.036,7.276,53.0,14.82,33.95
-0.058,19.031,7.275,53.0,14.82,34.22
-0.076,19.025,7.273,53.0,14.82,34.37
-0.087,19.021,7.291,53.0,14.82,34.53
-0.093,19.016,7.327,53.0,14.82,34.77
-0.037,19.011,7.361,53.0,14.82,35.01
-0.067,19.006,7.372,53.0,14.82,35.27
0.042,19.001,7.359,53.0,14.82,35.46
0.054,18.996,7.352,53.0,14.82,35.59
-0.04,18.992,7.348,53.0,14.82,35.67
0.019,18.988,7.348,53.0,14.82,35.72
0.127,18.983,7.346,96.0,14.82,35.73
0.144,18.977,7.346,96.0,14.82,35.64
-0.017,18.975,7.346,96.0,14.82,35.6
-0.026,18.974,7.346,96.0,14.82,35.54
-0.042,18.971,7.342,96.0,14.82,35.46
-0.045,18.97,7.339,96.0,14.82,35.27
-0.053,18.968,7.338,96.0,14.82,35.11
-0.038,18.968,7.338,96.0,14.82,34.9
0.021,18.968,7.338,96.0,14.82,34.68
-0.068,18.968,7.338,96.0,14.82,34.45
0.193,18.968,7.338,96.0,14.82,34.43
-0.029,18.969,7.338,96.0,14.82,34.22
0.004,18.971,7.339,96.0,14.82,34.02
0.091,18.974,7.341,96.0,14.82,33.88
0.196,18.979,7.341,96.0,14.82,33.73
0.05,18.983,7.341,96.0,14.82,33.63
-0.024,18.988,7.339,96.0,14.82,33.54
-0.013,18.996,7.334,69.0,14.82,33.5
-0.03,19.004,7.332,69.0,14.82,33.37
-0.042,19.012,7.327,69.0,14.82,33.21
-0.033,19.022,7.327,69.0,14.82,33.17
0.034,19.034,7.332,69.0,14.82,33.14
-0.066,19.047,7.339,69.0,14.82,33.15
0.186,19.069,7.344,69.0,14.82,33.13
-0.04,19.081,7.347,69.0,14.82,33.13
0.017,19.09,7.354,69.0,14.82,33.11
0.168,19.107,7.367,70.0,14.82,33.1
0.185,19.124,7.378,70.0,14.82,33.08
0.056,19.144,7.39,70.0,14.82,33.07
-0.031,19.165,7.403,70.0,14.82,33.05
-0.026,19.187,7.413,70.0,14.82,33.05
-0.044,19.21,7.423,70.0,14.82,32.92
-0.061,19.235,7.432,70.0,14.82,32.92
-0.07,19.259,7.442,70.0,14.82,32.9
-0.018,19.284,7.455,70.0,14.81,32.89
-0.051,19.309,7.469,70.0,14.81,32.91
-0.012,19.337,7.485,70.0,14.82,32.92
0.064,19.361,7.505,70.0,14.81,32.99
-0.074,19.386,7.525,70.0,14.81,33.04
-0.024,19.411,7.541,70.0,14.81,33.15
0.082,19.436,7.555,68.0,14.82,33.3
0.117,19.461,7.575,68.0,14.82,33.49
-0.06,19.483,7.602,68.0,14.81,33.72
-0.074,19.506,7.63,68.0,14.81,33.98
-0.081,19.529,7.652,68.0,14.81,34.29
-0.103,19.549,7.673,68.0,14.81,34.44
-0.089,19.569,7.69,68.0,14.81,34.65
-0.043,19.589,7.705,68.0,14.81,34.9
-0.131,19.607,7.72,68.0,14.81,35.19
0.152,19.625,7.733,68.0,14.81,35.48
-0.096,19.64,7.746,68.0,14.81,35.74
-0.06,19.655,7.763,68.0,14.81,35.97
0.021,19.668,7.792,75.0,14.81,36.2
0.11,19.682,7.809,75.0,14.81,36.39
-0.018,19.693,7.826,75.0,14.81,36.54
-0.07,19.703,7.847,75.0,14.81,36.55
-0.06,19.713,7.859,75.0,14.81,36.53
-0.074,19.72,7.871,75.0,14.81,36.41
-0.078,19.727,7.88,75.0,14.8,36.27
-0.038,19.734,7.892,75.0,14.81,36.18
-0.023,19.739,7.904,75.0,14.81,36.07
-0.058,19.744,7.914,75.0,14.8,36.02
0.161,19.747,7.922,75.0,14.8,35.91
-0.041,19.749,7.93,75.0,14.8,35.8
0.006,19.752,7.936,75.0,14.8,35.67
0.104,19.753,7.941,72.0,14.8,35.56
0.16,19.753,7.945,72.0,14.8,35.44
-0.005,19.753,7.949,72.0,14.8,35.34
-0.029,19.753,7.954,72.0,14.8,35.22
-0.027,19.751,7.969,72.0,14.8,35.17
-0.051,19.748,7.978,72.0,14.8,34.91
-0.065,19.747,7.986,72.0,14.8,34.74
-0.072,19.742,7.993,72.0,14.8,34.63
-0.071,19.739,8.007,72.0,14.8,34.52
0.012,19.734,8.014,72.0,14.8,34.45
-0.075,19.732,8.021,72.0,14.8,34.35
0.177,19.727,8.024,72.0,14.8,34.21
-0.053,19.722,8.038,72.0,14.8,34.08
-0.019,19.717,8.042,72.0,14.8,33.96
0.053,19.712,8.044,72.0,14.8,33.87
0.172,19.704,8.043,64.0,14.8,33.8
0.101,19.699,8.044,64.0,14.8,33.73
-0.031,19.695,8.042,64.0,14.8,33.68
-0.031,19.689,8.038,64.0,14.8,33.66
-0.035,19.682,8.035,64.0,14.8,33.56
-0.054,19.676,8.031,64.0,14.8,33.37
-0.059,19.67,8.023,64.0,14.8,33.32
-0.059,19.662,8.014,64.0,14.8,33.3
-0.058,19.655,8.012,64.0,14.8,33.29
0.024,19.647,8.019,64.0,14.8,33.29
-0.055,19.64,8.034,64.0,14.8,33.28
0.179,19.632,8.048,64.0,14.8,33.23
-0.035,19.625,8.055,64.0,14.8,33.21
-0.007,19.617,8.058,86.0,14.8,33.2
0.058,19.608,8.059,86.0,14.8,33.18
0.175,19.601,8.063,86.0,14.8,33.17
0.126,19.594,8.065,86.0,14.8,33.16
-0.03,19.586,8.068,86.0,14.8,33.17
-0.028,19.579,8.073,86.0,14.8,33.16
-0.042,19.571,8.074,86.0,14.8,33.16
-0.064,19.564,8.078,86.0,14.8,33.1
-0.07,19.556,8.079,86.0,14.8,33.14
-0.075,19.549,8.078,86.0,14.8,33.23
-0.063,19.541,8.074,86.0,14.8,33.37
-0.008,19.535,8.069,86.0,14.8,33.52
-0.089,19.526,8.068,86.0,14.8,33.69
0.174,19.519,8.072,86.0,14.8,33.87
-0.056,19.51,8.074,86.0,14.8,34.07
-0.027,19.503,8.084,86.0,14.8,34.27
0.054,19.494,8.084,63.0,14.8,34.48
0.156,19.487,8.084,63.0,14.8,34.68
0.024,19.479,8.082,63.0,14.8,34.89
-0.048,19.472,8.079,63.0,14.8,35.08
-0.039,19.464,8.079,63.0,14.8,35.28
-0.057,19.456,8.08,63.0,14.8,35.32
-0.069,19.448,8.08,63.0,14.8,35.27
-0.071,19.439,8.082,63.0,14.8,35.24
-0.052,19.432,8.083,63.0,14.8,35.19
0.005,19.423,8.086,63.0,14.8,35.16
-0.081,19.415,8.09,63.0,14.8,35.12
0.188,19.407,8.088,63.0,14.8,35.02
-0.039,19.399,8.084,63.0,14.8,34.92
-0.003,19.39,8.084,63.0,14.8,34.83
0.084,19.382,8.082,66.0,14.8,34.75
0.185,19.374,8.084,66.0,14.8,34.69
0.037,19.366,8.084,66.0,14.8,34.63
-0.031,19.357,8.082,66.0,14.8,34.55
-0.023,19.349,8.079,66.0,14.8,34.5
-0.042,19.341,8.075,66.0,14.8,34.33
-0.054,19.333,8.074,66.0,14.8,34.14
-0.059,19.325,8.07,66.0,14.8,34.06
-0.056,19.317,8.061,66.0,14.8,33.97
0.015,19.309,8.053,66.0,14.8,33.92
-0.053,19.3,8.048,66.0,14.8,33.86
0.164,19.293,8.04,66.0,14.8,33.79
-0.032,19.285,8.036,66.0,14.8,33.7
-0.018,19.277,8.028,66.0,14.8,33.63
0.045,19.268,8.023,66.0,14.8,33.6
0.166,19.26,8.021,64.0,14.8,33.55
0.134,19.252,8.014,64.0,14.8,33.53
-0.03,19.243,8.007,64.0,14.8,33.5
-0.028,19.236,8.001,64.0,14.8,33.47
-0.038,19.228,7.996,64.0,14.8,33.44
-0.057,19.222,7.99,64.0,14.8,33.29
-0.065,19.209,7.986,64.0,14.8,33.23
-0.067,19.202,7.981,64.0,14.8,33.23
-0.05,19.198,7.976,64.0,14.8,33.23
-0.057,19.191,7.968,64.0,14.8,33.25
-0.076,19.185,7.962,64.0,14.8,33.26
0.172,19.177,7.956,64.0,14.8,33.24
-0.054,19.17,7.951,64.0,14.8,33.23
-0.022,19.163,7.946,64.0,14.8,33.23
0.05,19.156,7.941,88.0,14.8,33.22
0.171,19.149,7.936,88.0,14.8,33.22
0.091,19.143,7.93,88.0,14.8,33.23
-0.038,19.135,7.924,88.0,14.8,33.22
-0.03,19.126,7.921,88.0,14.8,33.25
-0.043,19.12,7.918,88.0,14.8,33.21
-0.061,19.113,7.914,88.0,14.79,33.12
-0.067,19.105,7.911,88.0,14.79,33.13
-0.069,19.098,7.909,88.0,14.79,33.14
-0.046,19.091,7.904,88.0,14.79,33.17
-0.011,19.085,7.896,88.0,14.8,33.21
-0.068,19.078,7.889,88.0,14.8,33.26
0.156,19.073,7.884,88.0,14.79,33.27
-0.047,19.066,7.879,88.0,14.79,33.32
-0.004,19.059,7.87,88.0,14.79,33.35
0.092,19.052,7.874,63.0,14.79,33.41
0.178,19.046,7.869,63.0,14.8,33.47
0.01,19.038,7.866,63.0,14.79,33.54
-0.035,19.033,7.862,63.0,14.79,33.58
-0.029,19.026,7.857,63.0,14.79,33.65
-0.049,19.021,7.854,63.0,14.79,33.59
-0.062,19.014,7.848,63.0,14.79,33.54
-0.065,19.008,7.844,63.0,14.79,33.53
-0.025,19.003,7.839,63.0,14.79,33.5
-0.018,18.996,7.836,63.0,14.79,33.52
-0.03,18.989,7.832,63.0,14.79,33.53
0.133,18.983,7.827,63.0,14.79,33.49
-0.034,18.979,7.822,63.0,14.79,33.45
0.012,18.974,7.819,63.0,14.79,33.41
0.118,18.967,7.814,67.0,14.79,33.38
0.177,18.961,7.812,67.0,14.79,33.38
-0.003,18.956,7.806,67.0,14.77,33.35
-0.03,18.95,7.802,67.0,14.77,33.34
-0.033,18.944,7.797,67.0,14.77,33.33
-0.055,18.939,7.796,67.0,14.77,33.23
-0.061,18.931,7.794,67.0,14.77,33.15
-0.064,18.926,7.787,67.0,14.79,33.14
-0.02,18.921,7.784,67.0,14.77,33.12
-0.015,18.914,7.781,67.0,14.77,33.15
-0.02,18.909,7.777,67.0,14.77,33.16
0.132,18.904,7.774,67.0,14.77,33.16
-0.033,18.897,7.776,67.0,14.77,33.14
0.015,18.893,7.772,67.0,14.77,33.12
0.123,18.887,7.77,95.0,14.77,33.12
0.179,18.882,7.767,95.0,14.77,33.1
-0.001,18.877,7.762,95.0,14.77,33.1
-0.027,18.872,7.76,95.0,14.77,33.08
-0.03,18.867,7.757,95.0,14.77,33.11
-0.049,18.862,7.754,95.0,14.77,33.02
-0.058,18.857,7.751,95.0,14.77,32.94
-0.059,18.852,7.747,95.0,14.77,32.94
0.025,18.847,7.744,95.0,14.77,32.95
-0.072,18.842,7.74,95.0,14.77,32.98
0.171,18.837,7.737,95.0,14.77,33.01
-0.055,18.832,7.732,95.0,14.77,32.99
-0.031,18.827,7.731,95.0,14.77,32.99
0.041,18.822,7.73,95.0,14.77,33.01
0.156,18.817,7.726,68.0,14.77,33.03
0.079,18.812,7.718,68.0,14.77,33.06
-0.05,18.807,7.719,68.0,14.77,33.1
-0.05,18.802,7.72,68.0,14.77,33.18
-0.069,18.797,7.719,68.0,14.77,33.22
-0.085,18.794,7.716,68.0,14.77,33.24
-0.08,18.79,7.715,68.0,14.77,33.34
-0.016,18.785,7.712,68.0,14.77,33.47
-0.112,18.78,7.71,68.0,14.77,33.63
0.153,18.775,7.706,68.0,14.77,33.82
-0.086,18.77,7.704,68.0,14.77,34.03
-0.052,18.765,7.7,68.0,14.77,34.28
0.024,18.76,7.697,72.0,14.77,34.52
0.123,18.755,7.694,72.0,14.77,34.78
0.004,18.751,7.69,72.0,14.77,35.04
-0.071,18.747,7.687,72.0,14.77,35.24
-0.065,18.742,7.684,72.0,14.77,35.49
-0.082,18.737,7.68,72.0,14.77,35.6
-0.069,18.735,7.678,72.0,14.77,35.65
-0.021,18.73,7.674,72.0,14.77,35.71
-0.107,18.725,7.673,72.0,14.77,35.76
0.162,18.72,7.672,72.0,14.77,35.78
-0.074,18.716,7.669,72.0,14.77,35.77
-0.036,18.713,7.668,72.0,14.77,35.7
0.05,18.708,7.665,78.0,14.77,35.63
0.126,18.703,7.663,78.0,14.77,35.57
-0.017,18.698,7.66,78.0,14.77,35.5
-0.059,18.695,7.657,78.0,14.77,35.42
-0.054,18.69,7.654,78.0,14.77,35.39
-0.071,18.685,7.652,78.0,14.77,35.24
-0.077,18.68,7.65,78.0,14.77,35.06
-0.004,18.675,7.648,78.0,14.77,34.99
-0.072,18.673,7.645,78.0,14.77,34.91
0.107,18.668,7.644,78.0,14.77,34.89
-0.027,18.663,7.642,78.0,14.77,34.81
-0.048,18.66,7.639,78.0,14.77,34.7
0.015,18.655,7.637,78.0,14.77,34.62
0.129,18.652,7.634,74.0,14.77,34.51
0.11,18.648,7.633,74.0,14.77,34.4
-0.037,18.644,7.626,74.0,14.77,34.3
-0.034,18.64,7.62,74.0,14.77,34.19
-0.062,18.635,7.615,74.0,14.77,34.07
-0.046,18.632,7.61,74.0,14.77,33.81
-0.052,18.628,7.607,74.0,14.77,33.69
-0.039,18.625,7.604,74.0,14.77,33.6
-0.002,18.622,7.603,74.0,14.77,33.55
-0.063,18.622,7.599,74.0,14.77,33.51
0.159,18.622,7.599,74.0,14.77,33.66
-0.034,18.621,7.597,74.0,14.77,33.78
0.007,18.622,7.597,74.0,14.76,33.17
0.107,18.625,7.597,69.0,14.77,33.37
0.186,18.628,7.594,69.0,14.76,33.57
0.023,18.632,7.584,69.0,14.77,33.32
-0.027,18.635,7.585,69.0,14.77,33.21
-0.032,18.64,7.585,69.0,14.76,33.3
-0.057,18.648,7.582,69.0,14.77,33.15
-0.07,18.653,7.585,69.0,14.77,33.05
-0.075,18.659,7.585,69.0,14.76,32.98
-0.002,18.665,7.585,69.0,14.76,32.86
-0.099,18.67,7.587,69.0,14.76,32.93
0.147,18.675,7.588,69.0,14.76,32.97
-0.083,18.68,7.59,69.0,14.76,33.03
-0.056,18.685,7.59,69.0,14.76,33.16
0.013,18.688,7.59,69.0,14.76,33.33
0.12,18.693,7.59,69.0,14.76,33.59
0.04,18.695,7.59,69.0,14.76,33.94
-0.08,18.7,7.59,69.0,14.76,34.37
-0.077,18.704,7.588,69.0,14.76,34.76
-0.092,18.707,7.59,69.0,14.76,35.06
-0.049,18.709,7.59,69.0,14.76,35.31
-0.084,18.712,7.59,69.0,14.76,35.65
0.003,18.712,7.59,69.0,14.76,35.99
0.043,18.714,7.59,69.0,14.76,36.34
-0.072,18.714,7.59,69.0,14.76,36.61
-0.018,18.714,7.587,69.0,14.76,36.9
0.081,18.715,7.587,81.0,14.76,36.86
0.085,18.715,7.585,81.0,14.76,36.76
-0.058,18.714,7.582,81.0,14.76,36.63
-0.055,18.714,7.586,81.0,14.76,36.52
-0.053,18.714,7.591,81.0,14.76,36.41
-0.069,18.713,7.603,81.0,14.76,36.16
-0.076,18.712,7.62,81.0,14.76,35.98
-0.062,18.709,7.619,81.0,14.76,35.84
-0.002,18.708,7.599,81.0,14.76,35.76
-0.091,18.705,7.578,81.0,14.76,35.68
0.17,18.703,7.566,81.0,14.76,35.51
-0.041,18.702,7.562,81.0,14.76,35.37
0.063,18.699,7.558,81.0,14.76,35.25
0.164,18.697,7.553,81.0,14.75,35.1
0.034,18.694,7.546,81.0,14.76,34.91
-0.037,18.692,7.538,81.0,14.76,34.81
-0.029,18.689,7.533,68.0,14.76,34.66
-0.046,18.685,7.532,68.0,14.75,34.25
-0.06,18.683,7.532,68.0,14.75,33.98
-0.065,18.68,7.531,68.0,14.75,33.86
-0.065,18.678,7.528,68.0,14.75,33.74
-0.004,18.674,7.523,68.0,14.75,33.68
-0.033,18.672,7.516,68.0,14.75,33.61
0.05,18.668,7.51,68.0,14.75,33.55
0.073,18.665,7.499,68.0,14.75,33.48
-0.023,18.662,7.483,68.0,14.75,33.44
0.033,18.658,7.461,68.0,14.75,33.38
0.141,18.653,7.431,68.0,14.75,33.34
0.159,18.648,7.398,68.0,14.75,33.31
-0.013,18.645,7.372,68.0,14.75,33.3
-0.024,18.64,7.347,68.0,14.75,33.28
-0.029,18.638,7.325,68.0,14.75,33.29
-0.047,18.634,7.306,68.0,14.75,33.14
-0.058,18.63,7.291,68.0,14.75,33.1
-0.057,18.628,7.274,68.0,14.75,33.09
-0.061,18.625,7.26,68.0,14.75,33.11
-0.053,18.622,7.251,68.0,14.75,33.14
0.011,18.618,7.241,68.0,14.75,33.14
-0.075,18.613,7.234,68.0,14.75,33.14
0.176,18.611,7.228,68.0,14.75,33.15
-0.055,18.607,7.223,68.0,14.75,33.13
-0.03,18.603,7.218,68.0,14.75,33.14
0.044,18.601,7.213,60.0,14.75,33.27
0.156,18.598,7.209,60.0,14.75,33.34
0.036,18.595,7.209,60.0,14.75,33.48
-0.07,18.593,7.205,60.0,14.75,33.83
-0.069,18.591,7.2,60.0,14.75,34.29
-0.09,18.588,7.198,60.0,14.75,34.53
-0.113,18.586,7.195,60.0,14.75,34.72
-0.123,18.583,7.194,60.0,14.75,34.95
-0.067,18.58,7.192,60.0,14.75,35.22
-0.115,18.576,7.192,60.0,14.75,35.52
0.042,18.573,7.189,60.0,14.75,35.65
-0.043,18.571,7.187,60.0,14.75,35.74
-0.103,18.567,7.187,60.0,14.75,35.86
-0.048,18.563,7.184,60.0,14.75,35.96
0.05,18.558,7.18,69.0,14.75,35.99
0.045,18.556,7.182,69.0,14.75,35.97
-0.098,18.553,7.179,69.0,14.75,35.93
-0.099,18.551,7.179,69.0,14.75,35.81
-0.103,18.547,7.182,69.0,14.75,35.7
-0.116,18.543,7.185,69.0,14.75,35.51
-0.117,18.541,7.208,69.0,14.75,35.37
-0.112,18.536,7.246,69.0,14.75,35.29
-0.035,18.531,7.27,69.0,14.75,35.16
-0.124,18.529,7.287,69.0,14.75,35.14
0.138,18.525,7.298,69.0,14.75,35.02
-0.099,18.521,7.305,69.0,14.75,34.91
-0.065,18.519,7.312,69.0,14.75,34.81
0.011,18.516,7.317,67.0,14.75,34.74
0.116,18.511,7.322,67.0,14.75,34.67
0.017,18.51,7.327,67.0,14.75,34.61
-0.083,18.508,7.332,67.0,14.75,34.56
-0.073,18.505,7.336,67.0,14.75,34.52
-0.089,18.505,7.34,67.0,14.75,34.33
-0.102,18.503,7.344,67.0,14.75,34.13
-0.107,18.503,7.347,67.0,14.75,34.08
-0.103,18.505,7.352,67.0,14.75,34.05
-0.022,18.509,7.354,67.0,14.75,34.05
-0.104,18.514,7.357,67.0,14.75,34.04
0.142,18.52,7.358,67.0,14.75,34.01
-0.082,18.527,7.362,67.0,14.75,33.97
-0.053,18.537,7.364,67.0,14.75,33.94
0.013,18.547,7.369,67.0,14.75,33.89
0.127,18.558,7.373,65.0,14.75,33.88
0.068,18.573,7.379,65.0,14.75,33.88
-0.069,18.588,7.384,65.0,14.75,33.86
-0.06,18.603,7.389,65.0,14.75,33.86
-0.071,18.618,7.394,65.0,14.75,33.84
-0.09,18.634,7.402,65.0,14.75,33.69
-0.093,18.652,7.408,65.0,14.75,33.63
-0.091,18.668,7.414,65.0,14.75,33.62
-0.088,18.685,7.422,65.0,14.75,33.62
-0.01,18.7,7.427,65.0,14.75,33.62
-0.082,18.717,7.435,65.0,14.75,33.62
0.15,18.732,7.442,65.0,14.75,33.61
-0.063,18.747,7.45,65.0,14.75,33.59
-0.037,18.761,7.459,65.0,14.75,33.57
0.029,18.775,7.465,65.0,14.75,33.57
0.147,18.787,7.472,62.0,14.75,33.57
0.113,18.799,7.479,62.0,14.75,33.56
-0.038,18.81,7.485,62.0,14.75,33.56
-0.032,18.82,7.491,62.0,14.75,33.56
-0.041,18.83,7.496,62.0,14.75,33.54
-0.057,18.84,7.501,62.0,14.75,33.42
-0.063,18.849,7.506,62.0,14.75,33.4
-0.068,18.857,7.511,62.0,14.75,33.39
-0.07,18.864,7.517,62.0,14.75,33.4
-0.051,18.87,7.523,62.0,14.75,33.43
-0.005,18.877,7.528,62.0,14.75,33.44
-0.078,18.882,7.533,62.0,14.74,33.47
0.176,18.887,7.537,62.0,14.75,33.51
-0.046,18.892,7.538,62.0,14.75,33.63
-0.008,18.894,7.541,62.0,14.75,33.78
0.077,18.898,7.543,62.0,14.75,33.99
0.167,18.9,7.547,62.0,14.75,34.25
0.012,18.903,7.55,62.0,14.75,34.54
-0.047,18.904,7.552,62.0,14.74,34.81
-0.041,18.905,7.555,60.0,14.75,35.1
-0.058,18.908,7.557,60.0,14.75,35.23
-0.068,18.908,7.557,60.0,14.74,35.34
-0.068,18.908,7.56,60.0,14.74,35.51
-0.042,18.908,7.562,60.0,14.74,35.63
-0.002,18.908,7.562,60.0,14.75,35.76
-0.056,18.906,7.565,60.0,14.75,35.8
0.188,18.905,7.565,60.0,14.74,35.75
-0.032,18.903,7.565,60.0,14.74,35.68
0.009,18.901,7.566,60.0,14.74,35.62
0.101,18.899,7.567,60.0,14.74,35.58
0.171,18.898,7.567,60.0,14.74,35.53
0.01,18.895,7.567,60.0,14.74,35.49
-0.028,18.893,7.568,60.0,14.74,35.45
-0.021,18.889,7.567,66.0,14.74,35.43
-0.042,18.887,7.567,66.0,14.74,35.29
-0.051,18.884,7.567,66.0,14.74,35.17
-0.053,18.879,7.567,66.0,14.74,35.09
-0.052,18.874,7.567,66.0,14.74,35.03
0.003,18.872,7.567,66.0,14.74,34.99
-0.026,18.867,7.567,66.0,14.74,34.95
0.079,18.862,7.566,66.0,14.74,34.85
0.07,18.857,7.565,66.0,14.74,34.76
-0.021,18.852,7.565,66.0,14.74,34.7
0.031,18.847,7.563,66.0,14.74,34.65
0.141,18.842,7.562,66.0,14.74,34.58
0.158,18.831,7.562,66.0,14.74,34.52
-0.011,18.822,7.56,66.0,14.74,34.47
-0.026,18.815,7.56,63.0,14.74,34.39
-0.04,18.809,7.557,63.0,14.74,34.34
-0.046,18.804,7.557,63.0,14.74,34.13
-0.05,18.797,7.556,63.0,14.74,34.04
-0.048,18.79,7.553,63.0,14.74,33.96
0.004,18.785,7.552,63.0,14.74,33.91
-0.013,18.777,7.552,63.0,14.74,33.85
0.054,18.771,7.55,63.0,14.74,33.79
0.098,18.765,7.55,63.0,14.74,33.75
-0.011,18.757,7.547,63.0,14.74,33.71
0.044,18.752,7.547,63.0,14.74,33.67
0.158,18.745,7.545,63.0,14.74,33.65
0.189,18.74,7.543,63.0,14.74,33.61
0.009,18.732,7.54,63.0,14.74,33.61
-0.004,18.727,7.54,63.0,14.74,33.58
-0.004,18.72,7.537,66.0,14.74,33.58
-0.022,18.714,7.536,66.0,14.74,33.44
-0.031,18.708,7.533,66.0,14.74,33.37
-0.035,18.701,7.531,66.0,14.74,33.36
-0.033,18.695,7.53,66.0,14.74,33.36
0.009,18.69,7.527,66.0,14.74,33.35
0.012,18.683,7.525,66.0,14.74,33.37
0.022,18.678,7.522,66.0,14.74,33.34
0.157,18.673,7.52,66.0,14.74,33.32
-0.001,18.665,7.517,66.0,14.74,33.33
0.046,18.66,7.516,66.0,14.74,33.32
0.156,18.654,7.513,66.0,14.72,33.32
0.208,18.648,7.512,66.0,14.72,33.31
0.02,18.643,7.51,66.0,14.72,33.32
-0.009,18.638,7.508,66.0,14.72,33.31
-0.007,18.631,7.506,61.0,14.74,33.34
-0.026,18.626,7.504,61.0,14.74,33.26
-0.037,18.621,7.501,61.0,14.72,33.23
-0.04,18.616,7.498,61.0,14.72,33.27
-0.043,18.611,7.495,61.0,14.72,33.29
-0.025,18.604,7.493,61.0,14.72,33.35
0.026,18.598,7.489,61.0,14.72,33.39
-0.053,18.593,7.485,61.0,14.72,33.43
0.206,18.588,7.483,61.0,14.72,33.44
-0.015,18.583,7.479,61.0,14.72,33.49
0.021,18.578,7.476,61.0,14.72,33.54
0.112,18.571,7.474,61.0,14.72,33.56
0.212,18.566,7.469,61.0,14.72,33.59
0.059,18.561,7.466,61.0,14.72,33.6
-0.011,18.556,7.464,61.0,14.72,33.59
-0.002,18.551,7.459,60.0,14.72,33.6
-0.019,18.546,7.458,60.0,14.72,33.55
-0.033,18.541,7.454,60.0,14.72,33.49
-0.037,18.538,7.451,60.0,14.72,33.49
-0.037,18.534,7.448,60.0,14.72,33.48
-0.011,18.529,7.444,60.0,14.72,33.49
0.025,18.524,7.441,60.0,14.72,33.49
-0.035,18.52,7.438,60.0,14.72,33.49
0.198,18.516,7.434,60.0,14.72,33.48
-0.011,18.511,7.431,60.0,14.72,33.48
0.029,18.506,7.429,60.0,14.72,33.47
0.127,18.504,7.425,60.0,14.72,33.47
0.212,18.499,7.422,60.0,14.72,33.45
0.04,18.496,7.419,60.0,14.72,33.47
-0.01,18.491,7.416,60.0,14.72,33.45
-0.003,18.486,7.413,62.0,14.72,33.49
-0.022,18.484,7.411,62.0,14.72,33.41
-0.033,18.479,7.407,62.0,14.72,33.37
-0.038,18.474,7.404,62.0,14.72,33.38
-0.042,18.471,7.402,62.0,14.72,33.38
-0.023,18.466,7.398,62.0,14.72,33.41
0.021,18.461,7.394,62.0,14.72,33.43
-0.051,18.459,7.392,62.0,14.72,33.47
0.205,18.454,7.388,62.0,14.72,33.55
-0.026,18.449,7.387,62.0,14.72,33.78
0.008,18.446,7.383,62.0,14.72,34.1
0.09,18.442,7.381,62.0,14.72,34.49
0.184,18.438,7.377,62.0,14.72,34.88
0.026,18.434,7.374,62.0,14.72,35.31
-0.034,18.429,7.371,62.0,14.72,35.71
-0.027,18.426,7.369,62.0,14.72,36.13
-0.042,18.422,7.366,62.0,14.72,36.45
-0.052,18.418,7.363,62.0,14.72,36.72
-0.041,18.414,7.361,62.0,14.72,37.07
0.016,18.409,7.358,62.0,14.72,37.34
-0.066,18.407,7.354,62.0,14.72,37.57
0.222,18.402,7.352,62.0,14.72,37.69
-0.03,18.399,7.349,62.0,14.72,37.72
0.005,18.394,7.347,62.0,14.72,37.67
0.08,18.392,7.343,70.0,14.72,37.55
0.177,18.387,7.341,70.0,14.72,37.39
0.042,18.384,7.337,70.0,14.72,37.25
-0.028,18.379,7.336,70.0,14.72,37.08
-0.017,18.377,7.333,70.0,14.72,36.95
-0.028,18.372,7.331,70.0,14.72,36.71
-0.035,18.367,7.33,70.0,14.72,36.44
-0.039,18.364,7.327,70.0,14.72,36.26
-0.027,18.36,7.325,70.0,14.72,36.06
0.034,18.357,7.321,70.0,14.72,35.91
-0.055,18.352,7.32,70.0,14.72,35.75
0.21,18.35,7.316,70.0,14.71,35.56
-0.025,18.346,7.315,70.0,14.71,35.37
0.008,18.342,7.311,70.0,14.72,35.19
0.09,18.339,7.309,65.0,14.72,35.02
0.196,18.336,7.306,65.0,14.71,34.88
0.062,18.334,7.304,65.0,14.71,34.75
-0.02,18.331,7.3,65.0,14.72,34.6
0.0,18.331,7.297,65.0,14.72,34.5
-0.005,18.33,7.294,65.0,14.72,34.27
-0.014,18.329,7.29,65.0,14.71,34.03
-0.014,18.329,7.282,65.0,14.72,33.97
-0.01,18.329,7.275,65.0,14.71,34.02
0.013,18.331,7.27,65.0,14.71,34.02
0.061,18.332,7.265,65.0,14.71,33.92
-0.02,18.336,7.262,65.0,14.71,33.88
0.233,18.34,7.26,65.0,14.71,33.87
0.02,18.345,7.259,65.0,14.71,33.83
0.056,18.352,7.259,65.0,14.71,33.76
0.153,18.358,7.257,65.0,14.71,33.67
0.253,18.368,7.259,65.0,14.71,33.61
0.088,18.378,7.253,65.0,14.71,33.55
0.01,18.39,7.241,65.0,14.71,33.53
0.013,18.402,7.237,62.0,14.71,33.5
-0.012,18.415,7.25,62.0,14.71,33.32
-0.037,18.432,7.282,62.0,14.71,33.15
-0.051,18.446,7.301,62.0,14.71,33.1
-0.057,18.46,7.311,62.0,14.71,33.03
-0.032,18.471,7.321,62.0,14.71,32.86
-0.047,18.486,7.327,62.0,14.71,32.86
-0.017,18.501,7.332,62.0,14.71,33.05
0.079,18.515,7.327,62.0,14.71,33.22
-0.077,18.529,7.326,62.0,14.71,33.31
-0.038,18.543,7.333,62.0,14.71,33.52
0.067,18.556,7.336,63.0,14.71,33.91
0.11,18.569,7.336,63.0,14.71,34.29
-0.064,18.581,7.337,63.0,14.71,34.51
-0.091,18.593,7.339,63.0,14.71,34.74
-0.095,18.604,7.344,63.0,14.71,35.24
-0.107,18.616,7.347,63.0,14.71,35.65
-0.105,18.624,7.349,63.0,14.71,35.98
-0.024,18.634,7.352,63.0,14.71,36.23
-0.087,18.644,7.357,63.0,14.71,36.46
0.152,18.651,7.363,63.0,14.71,36.73
-0.035,18.659,7.369,63.0,14.71,37.02
-0.029,18.666,7.377,63.0,14.71,37.02
0.032,18.675,7.383,63.0,14.71,37.02
0.156,18.68,7.392,73.0,14.71,36.98
0.108,18.685,7.394,73.0,14.71,36.78
-0.03,18.69,7.403,73.0,14.71,36.52
-0.024,18.695,7.414,73.0,14.71,36.51
-0.029,18.698,7.422,73.0,14.71,36.42
-0.04,18.7,7.426,73.0,14.71,36.17
-0.043,18.703,7.432,73.0,14.71,35.77
-0.006,18.704,7.441,73.0,14.71,35.37
0.019,18.707,7.446,73.0,14.71,35.18
-0.023,18.708,7.455,73.0,14.71,35.07
0.195,18.709,7.466,73.0,14.71,34.93
-0.005,18.709,7.475,73.0,14.71,34.73
0.04,18.709,7.48,73.0,14.71,34.61
0.144,18.708,7.485,68.0,14.71,34.53
0.21,18.707,7.49,68.0,14.71,34.46
0.035,18.707,7.494,68.0,14.71,34.37
-0.003,18.704,7.493,68.0,14.71,34.23
0.0,18.703,7.486,68.0,14.71,34.1
-0.026,18.7,7.485,68.0,14.71,33.81
-0.035,18.697,7.483,68.0,14.71,33.62
-0.043,18.694,7.481,68.0,14.7,33.59
-0.05,18.69,7.48,68.0,14.71,33.37
0.013,18.688,7.48,68.0,14.71,33.18
-0.063,18.684,7.48,68.0,14.71,33.15
0.155,18.682,7.48,68.0,14.71,33.08
-0.064,18.679,7.48,68.0,14.7,32.97
-0.063,18.677,7.48,68.0,14.7,33.0
-0.018,18.674,7.483,68.0,14.71,33.0
0.088,18.672,7.485,89.0,14.71,32.94
0.045,18.67,7.486,89.0,14.7,32.97
-0.11,18.669,7.49,89.0,14.7,33.12
-0.11,18.665,7.494,89.0,14.7,33.25
-0.119,18.664,7.498,89.0,14.7,33.36
-0.137,18.662,7.5,89.0,14.7,33.34
-0.141,18.659,7.5,89.0,14.7,33.33
-0.141,18.659,7.503,89.0,14.7,33.39
-0.103,18.659,7.503,89.0,14.7,33.54
-0.087,18.659,7.504,89.0,14.7,33.77
-0.114,18.662,7.505,89.0,14.7,34.05
0.096,18.665,7.505,89.0,14.7,34.24
-0.1,18.667,7.508,89.0,14.7,34.35
-0.03,18.67,7.509,89.0,14.7,34.36
0.106,18.673,7.51,64.0,14.7,34.38
0.102,18.677,7.51,64.0,14.7,34.36
-0.058,18.68,7.512,64.0,14.7,34.39
-0.09,18.685,7.515,64.0,14.7,34.33
-0.077,18.689,7.516,64.0,14.7,34.3
-0.094,18.696,7.518,64.0,14.7,34.2
-0.103,18.704,7.52,64.0,14.7,34.19
-0.106,18.708,7.522,64.0,14.7,34.12
-0.108,18.712,7.522,64.0,14.7,34.08
-0.103,18.715,7.525,64.0,14.7,34.05
-0.067,18.719,7.525,64.0,14.7,34.05
-0.053,18.722,7.525,64.0,14.7,34.03
-0.081,18.725,7.525,64.0,14.7,34.06
0.127,18.726,7.527,64.0,14.7,34.04
-0.065,18.729,7.528,64.0,14.7,33.93
-0.024,18.731,7.53,64.0,14.7,33.91
0.072,18.732,7.531,57.0,14.7,33.94
0.142,18.734,7.532,57.0,14.7,33.92
-0.015,18.736,7.532,57.0,14.7,33.95
-0.063,18.736,7.533,57.0,14.7,33.97
-0.048,18.736,7.535,57.0,14.7,33.91
-0.06,18.737,7.532,57.0,14.7,33.73
-0.065,18.74,7.532,57.0,14.7,33.68
-0.061,18.745,7.532,57.0,14.7,33.72
-0.05,18.749,7.532,57.0,14.7,33.74
-0.046,18.752,7.535,57.0,14.7,33.73
-0.027,18.756,7.536,57.0,14.7,33.81
0.035,18.76,7.538,57.0,14.7,34.07
-0.046,18.765,7.54,57.0,14.7,34.37
0.212,18.77,7.54,57.0,14.7,34.5
-0.004,18.775,7.542,57.0,14.7,34.65
0.023,18.779,7.542,78.0,14.7,34.9
0.104,18.782,7.542,78.0,14.7,34.93
0.227,18.785,7.542,78.0,14.7,34.97
0.122,18.79,7.542,78.0,14.7,35.13
0.0,18.792,7.545,78.0,14.7,35.19
0.006,18.797,7.547,78.0,14.7,35.19
-0.012,18.8,7.548,78.0,14.7,35.16
-0.035,18.802,7.547,78.0,14.7,35.16
-0.054,18.806,7.547,78.0,14.7,35.14
-0.05,18.808,7.547,78.0,14.7,35.13
-0.03,18.809,7.548,78.0,14.7,35.21
0.031,18.811,7.551,78.0,14.7,35.36
0.109,18.813,7.552,78.0,14.7,35.62
0.109,18.813,7.552,78.0,14.7,35.95
0.335,18.816,7.556,78.0,14.7,36.33
0.122,18.818,7.558,78.0,14.7,36.85
0.155,18.818,7.561,78.0,14.7,37.19
0.267,18.818,7.563,78.0,14.7,37.48
0.363,18.818,7.567,78.0,14.7,37.71
0.218,18.817,7.568,78.0,14.7,38.0
0.185,18.816,7.571,78.0,14.7,38.36
0.194,18.814,7.573,78.0,14.7,38.71
0.185,18.809,7.575,78.0,14.7,38.87
0.186,18.804,7.575,78.0,14.7,38.96
0.195,18.797,7.573,78.0,14.7,39.11
0.227,18.792,7.575,78.0,14.7,39.12
0.255,18.787,7.572,78.0,14.7,39.11
0.226,18.782,7.572,78.0,14.7,39.12
0.448,18.777,7.572,78.0,14.7,39.07
0.249,18.774,7.572,78.0,14.7,39.02
0.297,18.775,7.572,78.0,14.7,38.95
0.39,18.792,7.572,78.0,14.7,38.93
0.457,18.82,7.572,78.0,14.7,38.97
0.287,18.842,7.578,78.0,14.7,39.02
0.257,18.853,7.583,78.0,14.7,39.02
0.256,18.865,7.587,78.0,14.7,39.11
0.239,18.878,7.587,78.0,14.7,39.09
0.225,18.884,7.586,78.0,14.7,39.04
0.223,18.892,7.585,78.0,14.7,39.02
0.227,18.896,7.582,78.0,14.7,38.98
0.284,18.902,7.582,78.0,14.7,39.03
0.19,18.907,7.582,78.0,14.7,39.02
0.442,18.914,7.58,78.0,14.7,38.95
0.206,18.916,7.58,78.0,14.7,38.96
0.229,18.925,7.585,78.0,14.7,38.94
0.296,18.938,7.579,78.0,14.7,38.86
0.407,18.969,7.567,78.0,14.7,38.65
0.307,19.012,7.548,78.0,14.69,38.54
0.219,19.043,7.538,78.0,14.69,38.45
0.181,19.064,7.536,78.0,14.69,38.38
0.141,19.073,7.533,78.0,14.69,38.48
0.16,19.068,7.531,78.0,14.69,39.39
0.102,19.068,7.526,78.0,14.7,40.88
0.117,19.113,7.526,78.0,14.69,41.64
0.129,19.143,7.525,78.0,14.69,40.63
0.023,19.161,7.529,78.0,14.69,38.05
0.224,19.172,7.537,78.0,14.69,34.74
-0.024,19.144,7.536,78.0,14.69,32.19
0.001,19.085,7.528,78.0,14.69,30.71
0.118,19.032,7.527,78.0,14.69,30.47
0.242,18.986,7.531,78.0,14.69,31.09
0.117,18.96,7.535,78.0,14.69,32.12
0.056,18.977,7.537,78.0,14.69,33.37
0.135,19.062,7.541,78.0,14.69,34.59
0.291,19.156,7.54,78.0,14.69,33.44
0.345,19.179,7.538,78.0,14.69,32.67
0.331,19.19,7.535,78.0,14.69,33.77
0.277,19.197,7.531,78.0,14.69,34.95
0.459,19.202,7.531,78.0,14.69,36.14
0.241,19.216,7.532,78.0,14.68,37.67
0.365,19.252,7.529,78.0,14.68,39.08
0.529,19.253,7.525,78.0,14.68,39.74
0.584,19.22,7.532,78.0,14.68,39.7
0.364,19.177,7.537,78.0,14.68,39.83
0.271,19.124,7.536,78.0,14.68,41.96
0.28,19.067,7.523,78.0,14.68,44.39
0.273,19.059,7.511,78.0,14.68,45.71
0.175,19.098,7.501,78.0,14.68,45.55
0.167,19.17,7.495,78.0,14.68,44.04
0.26,19.151,7.491,78.0,14.68,41.23
0.106,19.143,7.489,78.0,14.68,37.9
0.15,19.134,7.485,78.0,14.68,36.17
0.25,19.11,7.484,78.0,14.68,36.04
0.271,19.093,7.481,78.0,14.68,36.73
0.121,19.079,7.479,78.0,14.69,38.75
0.095,19.07,7.476,78.0,14.68,40.47
0.075,19.061,7.475,78.0,14.69,39.45
0.113,19.053,7.474,78.0,14.68,37.48
0.034,19.046,7.471,78.0,14.68,36.95
0.15,19.039,7.469,78.0,14.68,37.3
0.085,19.038,7.466,78.0,14.68,37.3
0.019,19.056,7.464,78.0,14.69,36.75
0.067,19.094,7.461,78.0,14.69,36.51
0.171,19.135,7.459,42.0,14.68,36.75
0.158,19.161,7.454,42.0,14.68,36.88
-0.007,19.162,7.451,42.0,14.68,36.88
-0.026,19.154,7.448,42.0,14.68,37.06
-0.064,19.153,7.445,42.0,14.68,37.36
-0.065,19.158,7.444,42.0,14.68,37.65
0.007,19.171,7.443,42.0,14.68,37.81
-0.084,19.18,7.447,42.0,14.68,37.78
0.156,19.181,7.417,42.0,14.68,37.48
-0.07,19.19,7.418,42.0,14.68,37.13
-0.047,19.217,7.424,42.0,14.68,36.82
0.047,19.256,7.433,42.0,14.68,36.73
0.143,19.3,7.433,42.0,14.68,36.58
-0.008,19.351,7.428,42.0,14.68,36.33
-0.076,19.413,7.434,42.0,14.68,35.81
-0.078,19.481,7.444,42.0,14.68,35.41
-0.092,19.544,7.457,42.0,14.68,35.13
-0.097,19.61,7.474,42.0,14.68,34.76
-0.041,19.691,7.507,42.0,14.68,34.72
-0.144,19.794,7.551,42.0,14.68,34.43
0.064,19.891,7.572,42.0,14.68,34.05
-0.138,19.954,7.582,42.0,14.68,33.11
-0.132,20.057,7.589,42.0,14.68,32.22
-0.078,20.186,7.601,42.0,14.68,32.23
0.018,20.285,7.613,42.0,14.68,33.03
-0.027,20.419,7.62,42.0,14.68,33.66
-0.178,20.498,7.629,42.0,14.68,33.99
-0.188,20.576,7.636,42.0,14.68,33.76
-0.218,20.638,7.659,42.0,14.68,33.58
-0.165,20.727,7.684,42.0,14.68,33.78
-0.244,20.769,7.695,42.0,14.68,34.36
-0.208,20.791,7.701,42.0,14.68,34.88
-0.203,20.806,7.709,42.0,14.68,34.82
-0.181,20.791,7.713,42.0,14.68,34.69
-0.099,20.752,7.705,42.0,14.68,35.18
-0.006,20.692,7.702,42.0,14.68,36.0
-0.01,20.627,7.701,42.0,14.68,36.06
-0.15,20.571,7.706,42.0,14.68,35.55
-0.146,20.525,7.717,42.0,14.68,35.57
-0.2,20.536,7.728,42.0,14.68,35.43
-0.24,20.497,7.737,42.0,14.68,34.88
-0.202,20.476,7.76,42.0,14.68,34.51
-0.3,20.506,7.774,42.0,14.68,34.49
-0.06,20.542,7.802,42.0,14.68,34.93
-0.323,20.635,7.818,42.0,14.68,35.12
-0.311,20.777,7.847,42.0,14.68,35.27
-0.279,20.875,7.874,41.0,14.66,35.29
-0.138,20.898,7.864,41.0,14.66,35.67
-0.226,20.888,7.876,41.0,14.66,36.1
-0.269,20.869,7.891,41.0,14.66,36.15
-0.235,20.846,7.885,41.0,14.66,35.47
-0.227,20.82,7.884,41.0,14.66,35.12
-0.123,20.808,7.88,41.0,14.68,34.9
-0.202,20.784,7.875,41.0,14.68,34.38
0.048,20.742,7.877,41.0,14.68,34.48
-0.148,20.703,7.889,41.0,14.68,34.68
-0.099,20.623,7.931,41.0,14.68,34.97
-0.008,20.548,7.996,41.0,14.68,34.9
0.06,20.751,8.049,41.0,14.68,35.18
-0.059,20.91,8.075,41.0,14.68,35.44
-0.115,21.023,8.081,41.0,14.68,35.66
-0.125,21.151,8.087,41.0,14.66,36.2
-0.114,21.241,8.079,41.0,14.66,36.68
-0.101,21.284,8.079,41.0,14.66,37.28
-0.173,21.307,8.085,41.0,14.66,37.81
0.066,21.319,8.094,41.0,14.66,37.85
-0.064,21.337,8.09,41.0,14.66,38.41
-0.017,21.355,8.078,41.0,14.66,38.47
0.082,21.299,8.032,41.0,14.66,38.91
0.139,21.246,7.991,41.0,14.66,37.61
-0.043,21.195,7.972,41.0,14.66,35.68
-0.103,21.044,7.966,41.0,14.66,35.21
-0.114,21.011,7.969,41.0,14.66,35.62
-0.123,20.99,7.973,41.0,14.66,35.47
-0.06,20.962,7.982,41.0,14.66,35.21
-0.165,20.947,8.011,41.0,14.66,35.08
0.071,20.98,8.017,41.0,14.66,35.02
-0.158,20.997,8.023,41.0,14.66,34.85
-0.117,20.957,8.023,41.0,14.68,34.82
-0.049,21.033,8.024,41.0,14.68,35.35
0.051,21.024,8.039,41.0,14.66,35.95
-0.066,21.055,8.058,41.0,14.66,35.87
-0.147,21.025,8.061,41.0,14.66,36.11
-0.139,20.969,8.061,41.0,14.66,36.44
-0.145,20.904,8.059,41.0,14.66,36.56
-0.109,20.852,8.054,41.0,14.66,36.38
-0.199,20.807,8.048,41.0,14.66,36.59
0.1,20.801,8.038,41.0,14.66,36.51
-0.115,20.967,8.024,41.0,14.66,36.47
-0.029,21.065,8.018,41.0,14.66,36.91
0.064,21.06,8.009,85.0,14.66,38.15
0.129,21.032,8.007,85.0,14.66,40.16
0.008,20.995,8.003,85.0,14.66,41.43
-0.004,20.947,7.998,85.0,14.66,41.91
0.049,20.937,7.993,85.0,14.66,42.01
0.013,20.909,7.991,85.0,14.66,42.2
0.103,20.887,7.982,85.0,14.66,41.84
0.116,20.89,7.976,85.0,14.66,41.28
0.034,20.898,7.971,85.0,14.66,40.75
0.158,20.894,7.966,85.0,14.66,40.11
0.124,20.888,7.961,85.0,14.66,39.52
-0.016,20.873,7.955,85.0,14.66,39.39
-0.001,20.846,7.947,96.0,14.66,39.41
0.002,20.664,7.94,96.0,14.66,39.5
0.076,20.51,7.935,96.0,14.66,39.23
0.297,20.306,7.927,96.0,14.66,39.32
0.194,20.106,7.915,96.0,14.66,39.47
0.329,19.997,7.904,96.0,14.66,39.84
0.324,19.935,7.895,96.0,14.66,40.01
0.238,19.881,7.887,96.0,14.66,40.34
0.261,19.846,7.883,96.0,14.66,40.79
0.222,19.828,7.879,96.0,14.66,41.07
0.221,19.823,7.878,96.0,14.66,39.9
0.29,19.825,7.874,96.0,14.66,39.76
0.401,19.839,7.881,96.0,14.66,39.48
0.37,19.855,7.914,96.0,14.66,39.38
0.224,19.859,7.949,96.0,14.66,39.29
0.222,19.855,7.972,96.0,14.66,39.83
0.216,19.833,7.986,96.0,14.66,39.43
0.275,19.811,7.998,96.0,14.66,38.91
0.183,19.802,8.012,96.0,14.66,38.86
0.415,19.801,8.018,96.0,14.66,39.05
0.166,19.801,8.02,96.0,14.66,39.12
0.196,19.799,8.018,96.0,14.66,39.13
0.275,19.796,8.013,96.0,14.66,39.4
0.38,19.8,8.002,96.0,14.66,39.85
0.262,19.804,7.993,96.0,14.66,40.26
0.174,19.806,7.991,96.0,14.66,40.4
0.149,19.8,7.991,96.0,14.66,40.6
0.162,19.785,7.995,96.0,14.66,40.8
0.157,19.796,7.992,96.0,14.66,40.88
0.087,19.9,7.991,96.0,14.66,40.99
0.296,19.949,7.99,96.0,14.66,41.1
0.109,19.996,7.987,96.0,14.66,41.17
0.211,20.019,7.987,96.0,14.66,41.38
0.248,20.039,7.985,96.0,14.66,41.45
0.294,20.066,7.985,96.0,14.66,40.85
0.139,20.069,7.986,96.0,14.66,41.02
0.113,20.067,7.987,96.0,14.66,41.25
0.117,20.054,7.986,96.0,14.66,40.91
0.132,20.033,7.983,96.0,14.66,40.93
0.119,19.99,7.982,96.0,14.66,40.85
0.061,19.945,7.978,96.0,14.66,40.65
0.223,19.912,7.978,96.0,14.66,40.35
0.001,19.872,7.98,96.0,14.66,40.16
0.033,19.833,7.982,96.0,14.66,39.62
0.119,19.791,7.986,96.0,14.65,38.96
0.135,19.747,7.994,96.0,14.66,38.73
-0.051,19.708,8.004,96.0,14.66,38.12
-0.085,19.664,8.014,96.0,14.66,37.83
-0.112,19.627,8.023,96.0,14.66,38.27
-0.126,19.596,8.028,96.0,14.66,37.77
-0.097,19.566,8.042,96.0,14.66,37.37
-0.203,19.54,8.027,96.0,14.66,37.26
0.054,19.519,8.022,96.0,14.66,37.47
-0.197,19.5,8.055,96.0,14.66,37.86
-0.172,19.48,8.088,96.0,14.66,38.37
-0.101,19.456,8.092,96.0,14.66,38.86
-0.036,19.432,8.078,96.0,14.65,39.24
-0.184,19.41,8.056,96.0,14.66,39.69
-0.23,19.388,8.056,96.0,14.66,40.21
-0.236,19.366,8.064,96.0,14.66,40.56
-0.184,19.341,8.078,96.0,14.65,40.72
-0.237,19.319,8.088,96.0,14.65,40.86
-0.116,19.294,8.093,96.0,14.65,41.09
-0.098,19.271,8.094,96.0,14.65,41.33
-0.213,19.248,8.09,96.0,14.66,41.36
-0.144,19.226,8.088,96.0,14.66,41.16
-0.043,19.202,8.078,87.0,14.65,40.87
-0.064,19.18,8.054,87.0,14.66,40.62
-0.196,19.155,8.048,87.0,14.65,40.48
-0.194,19.134,8.041,87.0,14.65,40.25
-0.206,19.112,8.033,87.0,14.65,39.85
-0.141,19.09,8.026,87.0,14.65,39.4
-0.218,19.068,8.022,87.0,14.65,39.09
-0.066,19.045,8.025,87.0,14.65,38.88
-0.171,19.023,8.022,87.0,14.65,38.6
-0.211,18.996,8.014,87.0,14.65,38.18
-0.156,18.969,8.003,87.0,14.65,37.73
-0.05,18.944,7.997,85.0,14.65,37.38
-0.09,18.923,7.989,85.0,14.65,37.14
-0.223,18.901,7.983,85.0,14.65,36.93
-0.23,18.881,7.976,85.0,14.65,36.55
-0.251,18.857,7.969,85.0,14.65,36.34
-0.201,18.833,7.962,85.0,14.65,36.05
-0.247,18.809,7.956,85.0,14.65,35.97
-0.195,18.787,7.951,85.0,14.65,35.97
-0.13,18.764,7.945,85.0,14.65,35.97
-0.259,18.742,7.939,85.0,14.65,35.94
-0.198,18.72,7.934,85.0,14.65,35.93
-0.09,18.695,7.929,83.0,14.65,35.93
-0.095,18.674,7.924,83.0,14.65,35.9
-0.248,18.653,7.919,83.0,14.65,35.85
-0.254,18.634,7.915,83.0,14.65,35.84
-0.268,18.615,7.912,83.0,14.65,35.84
-0.273,18.591,7.92,83.0,14.65,35.67
-0.186,18.565,7.923,83.0,14.65,35.64
-0.3,18.546,7.923,83.0,14.65,35.66
-0.04,18.531,7.919,83.0,14.65,35.74
-0.267,18.516,7.916,83.0,14.65,35.79
-0.284,18.499,7.914,83.0,14.65,35.96
-0.21,18.481,7.913,83.0,14.65,36.3
-0.107,18.467,7.909,80.0,14.65,36.28
-0.217,18.459,7.906,80.0,14.65,36.58
-0.311,18.451,7.904,80.0,14.65,37.1
-0.316,18.444,7.903,80.0,14.65,37.47
-0.331,18.437,7.9,80.0,14.65,37.67
-0.253,18.429,7.9,80.0,14.65,37.86
-0.359,18.42,7.899,80.0,14.65,37.83
-0.111,18.414,7.898,80.0,14.65,38.03
-0.323,18.407,7.898,80.0,14.65,38.31
-0.283,18.399,7.898,80.0,14.65,38.19
-0.203,18.39,7.895,80.0,14.65,37.99
-0.101,18.383,7.895,84.0,14.65,38.03
-0.189,18.375,7.896,84.0,14.65,38.03
-0.266,18.368,7.895,84.0,14.65,38.08
-0.268,18.361,7.896,84.0,14.65,38.29
-0.26,18.353,7.898,84.0,14.65,38.29
-0.222,18.345,7.896,84.0,14.65,38.14
-0.316,18.337,7.896,84.0,14.65,38.04
-0.055,18.328,7.898,84.0,14.65,38.03
-0.271,18.321,7.898,84.0,14.65,38.09
-0.222,18.313,7.896,84.0,14.65,38.18
-0.127,18.305,7.898,86.0,14.65,38.28
-0.061,18.296,7.898,86.0,14.65,38.33
-0.211,18.288,7.898,86.0,14.65,38.31
-0.238,18.278,7.898,86.0,14.65,38.26
-0.229,18.27,7.898,86.0,14.65,38.2
-0.166,18.263,7.896,86.0,14.65,37.98
-0.275,18.254,7.896,86.0,14.65,37.86
-0.018,18.244,7.895,86.0,14.65,37.8
-0.234,18.234,7.895,86.0,14.65,37.68
-0.192,18.224,7.894,86.0,14.65,37.58
-0.092,18.215,7.893,86.0,14.65,37.49
0.0,18.208,7.893,91.0,14.65,37.31
-0.128,18.2,7.891,91.0,14.65,37.1
-0.172,18.191,7.89,91.0,14.65,36.87
-0.176,18.179,7.888,91.0,14.65,36.69
-0.098,18.168,7.886,91.0,14.65,36.43
-0.215,18.157,7.885,91.0,14.65,36.33
0.021,18.148,7.883,91.0,14.65,36.27
-0.188,18.138,7.881,91.0,14.65,36.1
-0.155,18.123,7.879,91.0,14.65,36.07
-0.069,18.111,7.876,91.0,14.65,36.1
0.025,18.098,7.875,90.0,14.65,36.09
-0.082,18.089,7.875,90.0,14.65,36.02
-0.157,18.08,7.875,90.0,14.65,35.89
-0.161,18.069,7.873,90.0,14.65,35.85
-0.131,18.055,7.871,90.0,14.65,35.7
-0.167,18.045,7.87,90.0,14.65,35.52
-0.118,18.036,7.868,90.0,14.65,35.61
-0.075,18.026,7.866,90.0,14.65,35.98
-0.202,18.014,7.862,90.0,14.65,36.49
-0.142,18.008,7.854,90.0,14.65,36.62
-0.045,17.997,7.876,90.0,14.65,36.97
-0.064,17.987,7.884,90.0,14.65,37.48
-0.177,17.978,7.891,90.0,14.65,38.19
-0.178,17.965,7.893,90.0,14.65,38.89
-0.163,17.955,7.893,90.0,14.65,39.18
-0.136,17.945,7.893,90.0,14.65,39.42
-0.207,17.933,7.891,90.0,14.65,40.15
0.071,17.923,7.889,90.0,14.65,40.67
-0.168,17.913,7.888,90.0,14.65,41.19
-0.111,17.901,7.884,90.0,14.65,41.55
-0.012,17.89,7.883,90.0,14.65,41.79
0.032,17.878,7.88,90.0,14.65,42.01
-0.075,17.868,7.878,90.0,14.64,42.15
-0.079,17.856,7.875,90.0,14.65,42.15
-0.081,17.845,7.873,90.0,14.65,41.92
-0.026,17.832,7.869,90.0,14.64,41.53
-0.049,17.821,7.866,90.0,14.64,41.22
-0.014,17.811,7.864,90.0,14.64,41.02
0.112,17.801,7.859,90.0,14.65,40.82
-0.043,17.79,7.858,90.0,14.64,40.56
0.017,17.778,7.854,90.0,14.65,40.22
0.121,17.766,7.852,90.0,14.64,39.97
0.116,17.758,7.851,90.0,14.64,39.81
-0.004,17.746,7.848,90.0,14.64,39.63
-0.001,17.737,7.846,90.0,14.64,39.46
-0.01,17.727,7.844,90.0,14.64,39.17
-0.024,17.717,7.841,90.0,14.64,38.89
-0.031,17.707,7.839,90.0,14.64,38.73
0.037,17.697,7.834,90.0,14.64,38.58
-0.011,17.687,7.832,90.0,14.64,38.47
0.095,17.677,7.828,90.0,14.64,38.33
0.07,17.667,7.826,90.0,14.64,38.16
-0.007,17.657,7.822,90.0,14.64,38.0
0.049,17.649,7.819,90.0,14.64,37.84
0.156,17.641,7.817,90.0,14.64,37.65
0.135,17.634,7.812,90.0,14.64,37.53
-0.004,17.626,7.809,90.0,14.64,37.37
-0.006,17.62,7.807,90.0,14.64,37.22
-0.023,17.614,7.804,90.0,14.64,36.95
-0.044,17.609,7.802,90.0,14.64,36.63
-0.05,17.604,7.799,90.0,14.64,36.49
-0.055,17.599,7.797,90.0,14.64,36.39
-0.059,17.594,7.794,90.0,14.64,36.35
-0.031,17.589,7.792,90.0,14.64,36.29
-0.003,17.584,7.791,90.0,14.64,36.25
-0.067,17.579,7.787,90.0,14.64,36.23
0.159,17.576,7.786,90.0,14.64,36.24
-0.043,17.571,7.783,90.0,14.64,36.24
-0.004,17.567,7.781,90.0,14.64,36.24
0.092,17.56,7.777,90.0,14.64,36.24
0.156,17.553,7.775,90.0,14.64,36.26
-0.013,17.547,7.77,90.0,14.64,36.28
-0.055,17.542,7.769,90.0,14.64,36.27
-0.08,17.539,7.767,90.0,14.64,36.29
-0.092,17.534,7.765,90.0,14.64,36.15
-0.091,17.529,7.764,90.0,14.64,36.1
-0.092,17.524,7.76,90.0,14.64,36.11
-0.095,17.519,7.759,90.0,14.64,36.18
-0.042,17.514,7.756,90.0,14.64,36.19
-0.067,17.509,7.752,90.0,14.64,36.19
-0.023,17.504,7.75,90.0,14.64,36.19
0.053,17.499,7.749,90.0,14.64,36.2
-0.073,17.492,7.746,90.0,14.64,36.22
-0.018,17.487,7.744,90.0,14.64,36.24
0.1,17.48,7.741,90.0,14.64,36.25
0.121,17.475,7.739,90.0,14.64,36.27
-0.064,17.47,7.735,90.0,14.64,36.3
-0.073,17.465,7.732,90.0,14.64,36.31
-0.078,17.458,7.73,90.0,14.64,36.3
-0.096,17.452,7.727,90.0,14.64,36.15
-0.102,17.447,7.725,90.0,14.64,36.12
-0.108,17.441,7.722,90.0,14.64,36.13
-0.113,17.435,7.72,90.0,14.64,36.16
-0.121,17.43,7.719,90.0,14.64,36.2
-0.051,17.423,7.715,90.0,14.64,36.21
-0.135,17.417,7.712,90.0,14.64,36.26
0.092,17.41,7.711,90.0,14.64,36.35
-0.125,17.403,7.707,90.0,14.64,36.52
-0.109,17.397,7.705,90.0,14.64,36.71
-0.049,17.39,7.704,90.0,14.64,36.97
0.064,17.385,7.7,80.0,14.64,37.26
-0.01,17.38,7.697,80.0,14.64,37.58
-0.152,17.373,7.695,80.0,14.64,37.89
-0.148,17.365,7.692,80.0,14.64,38.23
-0.164,17.359,7.69,80.0,14.64,38.44
-0.174,17.353,7.687,80.0,14.64,38.6
-0.18,17.345,7.685,80.0,14.64,38.9
-0.184,17.339,7.683,80.0,14.64,39.17
-0.16,17.331,7.68,80.0,14.64,39.46
-0.122,17.324,7.677,80.0,14.64,39.67
-0.172,17.318,7.674,80.0,14.64,39.84
0.097,17.31,7.672,80.0,14.64,40.06
-0.135,17.304,7.67,80.0,14.64,40.27
-0.087,17.297,7.667,80.0,14.64,40.42
0.011,17.288,7.664,64.0,14.64,40.51
0.081,17.282,7.662,64.0,14.64,40.54
-0.075,17.276,7.66,64.0,14.64,40.52
-0.098,17.268,7.657,64.0,14.64,40.37
-0.094,17.261,7.654,64.0,14.64,40.18
-0.102,17.253,7.652,64.0,14.64,39.93
-0.104,17.246,7.649,64.0,14.64,39.68
-0.097,17.239,7.647,64.0,14.64,39.55
-0.089,17.233,7.644,64.0,14.64,39.41
-0.011,17.226,7.642,64.0,14.64,39.28
-0.07,17.218,7.639,64.0,14.64,39.08
0.149,17.212,7.637,64.0,14.64,38.88
-0.037,17.205,7.634,64.0,14.64,38.72
-0.029,17.199,7.632,64.0,14.64,38.59
0.035,17.191,7.629,64.0,14.64,38.48
0.16,17.184,7.627,64.0,14.64,38.4
0.114,17.176,7.624,64.0,14.64,38.33
-0.036,17.17,7.622,64.0,14.64,38.22
-0.025,17.162,7.619,64.0,14.64,38.1
-0.025,17.156,7.617,64.0,14.64,37.84
-0.038,17.149,7.614,64.0,14.64,37.58
-0.044,17.142,7.612,64.0,14.64,37.39
-0.042,17.135,7.609,63.0,14.64,37.25
-0.041,17.129,7.607,63.0,14.64,37.16
0.004,17.122,7.604,63.0,14.64,37.07
0.009,17.115,7.603,63.0,14.63,36.95
0.012,17.109,7.6,63.0,14.64,36.84
0.157,17.098,7.596,63.0,14.64,36.76
-0.001,17.092,7.595,63.0,14.63,36.68
0.085,17.088,7.593,63.0,14.63,36.62
0.235,17.08,7.591,63.0,14.63,36.57
0.212,17.074,7.588,63.0,14.63,36.54
0.011,17.069,7.586,63.0,14.63,36.5
-0.012,17.062,7.583,63.0,14.63,36.46
-0.01,17.055,7.581,63.0,14.63,36.38
-0.028,17.049,7.578,63.0,14.63,36.07
-0.037,17.042,7.576,60.0,14.63,36.07
-0.043,17.036,7.573,60.0,14.63,36.04
-0.044,17.03,7.571,60.0,14.63,36.04
-0.044,17.023,7.568,60.0,14.63,36.08
0.029,17.017,7.566,60.0,14.63,36.06
-0.04,17.011,7.565,60.0,14.63,36.05
0.174,17.005,7.562,60.0,14.63,36.05
-0.02,16.997,7.56,60.0,14.63,36.05
-0.007,16.992,7.557,60.0,14.63,36.05
0.058,16.985,7.555,60.0,14.63,36.07
0.194,16.978,7.552,60.0,14.63,36.08
0.151,16.972,7.55,60.0,14.63,36.08
-0.023,16.967,7.548,60.0,14.63,36.08
-0.024,16.96,7.546,59.0,14.63,36.1
-0.03,16.955,7.543,59.0,14.63,36.06
-0.046,16.948,7.542,59.0,14.63,35.91
-0.053,16.943,7.54,59.0,14.63,35.92
-0.056,16.937,7.537,59.0,14.63,35.92
-0.056,16.931,7.535,59.0,14.63,35.96
-0.026,16.925,7.532,59.0,14.63,35.99
0.006,16.92,7.53,59.0,14.63,36.01
-0.056,16.913,7.527,59.0,14.63,36.0
0.17,16.908,7.527,59.0,14.63,36.02
-0.031,16.9,7.525,59.0,14.63,36.03
0.01,16.895,7.523,59.0,14.63,36.04
0.12,16.889,7.521,59.0,14.63,36.07
0.207,16.883,7.518,59.0,14.63,36.09
0.006,16.878,7.516,59.0,14.63,36.13
-0.042,16.87,7.515,60.0,14.63,36.13
-0.038,16.865,7.512,60.0,14.63,36.17
-0.054,16.861,7.51,60.0,14.63,36.04
-0.065,16.853,7.508,60.0,14.63,35.99
-0.069,16.848,7.505,60.0,14.63,35.99
-0.067,16.843,7.504,60.0,14.63,36.01
-0.061,16.837,7.501,60.0,14.63,36.04
0.01,16.831,7.5,60.0,14.63,36.06
-0.083,16.826,7.498,60.0,14.63,36.07
0.169,16.821,7.495,60.0,14.63,36.07
-0.065,16.816,7.493,60.0,14.63,36.11
-0.038,16.809,7.491,60.0,14.63,36.18
0.034,16.803,7.489,60.0,14.63,36.3
0.163,16.796,7.488,60.0,14.63,36.44
0.031,16.791,7.484,60.0,14.63,36.66
-0.093,16.786,7.483,60.0,14.63,36.86
-0.094,16.781,7.48,60.0,14.63,37.14
-0.112,16.776,7.478,60.0,14.63,37.27
-0.131,16.771,7.475,60.0,14.63,37.42
-0.141,16.766,7.473,60.0,14.63,37.71
-0.129,16.761,7.471,60.0,14.63,37.99
-0.081,16.756,7.469,60.0,14.63,38.28
-0.168,16.751,7.466,60.0,14.63,38.52
0.12,16.746,7.464,60.0,14.63,38.7
-0.13,16.739,7.463,60.0,14.63,38.91
-0.091,16.734,7.46,60.0,14.63,39.18
-0.003,16.729,7.458,60.0,14.63,39.39
0.096,16.724,7.456,60.0,14.63,39.65
-0.057,16.719,7.454,60.0,14.63,39.92
-0.113,16.714,7.451,60.0,14.63,40.15
-0.106,16.709,7.449,60.0,14.63,40.31
-0.111,16.702,7.446,60.0,14.63,40.36
-0.114,16.696,7.445,60.0,14.63,40.35
-0.082,16.691,7.443,60.0,14.63,40.36
-0.047,16.686,7.44,60.0,14.63,40.34
-0.107,16.682,7.439,60.0,14.63,40.25
0.167,16.677,7.436,60.0,14.63,40.08
-0.067,16.672,7.435,60.0,14.63,39.86
-0.021,16.667,7.433,60.0,14.63,39.71
0.08,16.662,7.43,72.0,14.63,39.59
0.159,16.655,7.429,72.0,14.63,39.51
-0.015,16.651,7.428,72.0,14.63,39.43
-0.05,16.645,7.424,72.0,14.63,39.33
-0.039,16.639,7.423,72.0,14.63,39.18
-0.048,16.636,7.421,72.0,14.63,38.93
-0.057,16.632,7.418,72.0,14.63,38.71
-0.055,16.627,7.417,72.0,14.63,38.58
-0.049,16.622,7.416,72.0,14.63,38.45
0.034,16.617,7.413,72.0,14.63,38.38
-0.045,16.612,7.412,72.0,14.61,38.25
0.207,16.607,7.408,72.0,14.61,38.1
-0.019,16.602,7.408,72.0,14.61,37.99
0.011,16.597,7.406,72.0,14.61,37.89
0.083,16.592,7.403,72.0,14.61,37.82
0.216,16.587,7.402,72.0,14.61,37.76
0.14,16.582,7.398,72.0,14.63,37.71
-0.001,16.575,7.394,72.0,14.61,37.61
0.004,16.57,7.393,72.0,14.61,37.51
-0.001,16.567,7.393,72.0,14.61,37.3
-0.021,16.562,7.391,72.0,14.61,37.04
-0.023,16.557,7.389,64.0,14.61,36.92
-0.024,16.552,7.387,64.0,14.61,36.8
-0.025,16.547,7.384,64.0,14.61,36.75
-0.024,16.542,7.383,64.0,14.61,36.68
0.027,16.538,7.381,64.0,14.61,36.54
0.006,16.533,7.379,64.0,14.61,36.53
0.037,16.53,7.377,64.0,14.61,36.48
0.149,16.525,7.376,64.0,14.61,36.44
0.004,16.52,7.376,64.0,14.61,36.41
0.054,16.515,7.373,64.0,14.61,36.38
0.173,16.51,7.371,64.0,14.61,36.36
0.214,16.505,7.369,64.0,14.61,36.35
0.007,16.5,7.368,64.0,14.61,36.33
-0.02,16.495,7.366,56.0,14.61,36.3
-0.015,16.49,7.363,56.0,14.61,36.26
-0.032,16.488,7.362,56.0,14.61,36.09
-0.043,16.483,7.359,56.0,14.61,36.02
-0.047,16.478,7.358,56.0,14.61,36.0
-0.048,16.473,7.356,56.0,14.61,36.0
-0.052,16.468,7.354,56.0,14.61,36.02
-0.043,16.465,7.352,56.0,14.61,36.02
0.023,16.46,7.351,56.0,14.61,36.0
-0.065,16.455,7.348,56.0,14.61,35.99
0.186,16.45,7.348,56.0,14.61,35.98
-0.04,16.448,7.346,56.0,14.61,35.98
-0.011,16.443,7.343,56.0,14.61,35.99
0.068,16.438,7.342,56.0,14.61,35.99
0.202,16.434,7.339,56.0,14.61,36.03
0.073,16.428,7.337,56.0,14.61,36.1
-0.059,16.425,7.334,56.0,14.61,36.18
-0.061,16.422,7.334,56.0,14.61,36.34
-0.101,16.418,7.332,56.0,14.61,36.4
-0.108,16.411,7.33,56.0,14.61,36.47
-0.13,16.406,7.329,56.0,14.61,36.69
-0.12,16.403,7.326,56.0,14.61,36.92
-0.134,16.4,7.325,56.0,14.61,37.18
-0.111,16.396,7.324,56.0,14.61,37.56
-0.078,16.392,7.322,56.0,14.61,37.56
-0.133,16.388,7.319,56.0,14.61,37.55
0.123,16.383,7.319,56.0,14.61,37.61
-0.105,16.378,7.316,56.0,14.61,38.07
-0.066,16.376,7.314,56.0,14.61,38.56
0.028,16.369,7.314,80.0,14.61,39.1
0.118,16.366,7.311,80.0,14.61,39.53
-0.054,16.361,7.309,80.0,14.61,39.86
-0.094,16.356,7.307,80.0,14.61,40.07
-0.084,16.353,7.306,80.0,14.61,40.13
-0.097,16.348,7.304,80.0,14.61,40.03
-0.102,16.343,7.301,80.0,14.61,39.87
-0.099,16.338,7.301,80.0,14.61,39.71
-0.099,16.336,7.299,80.0,14.61,39.49
-0.058,16.331,7.296,80.0,14.61,39.33
-0.051,16.326,7.296,80.0,14.61,39.11
-0.056,16.324,7.294,80.0,14.61,38.87
0.125,16.319,7.292,80.0,14.61,38.72
-0.066,16.314,7.291,80.0,14.61,38.61
-0.024,16.309,7.289,80.0,14.61,38.54
0.084,16.305,7.287,62.0,14.61,38.47
0.142,16.301,7.286,62.0,14.61,38.41
-0.049,16.296,7.284,62.0,14.61,38.33
-0.081,16.291,7.282,62.0,14.61,38.23
-0.073,16.289,7.281,62.0,14.61,38.17
-0.086,16.284,7.279,62.0,14.61,38.01
-0.091,16.279,7.277,62.0,14.61,37.91
-0.091,16.276,7.275,62.0,14.61,37.89
-0.089,16.271,7.274,62.0,14.61,37.87
-0.088,16.267,7.272,62.0,14.61,37.89
-0.078,16.264,7.271,62.0,14.61,37.87
-0.008,16.259,7.269,62.0,14.61,37.83
-0.091,16.254,7.267,62.0,14.61,37.8
0.173,16.251,7.266,62.0,14.61,37.79
-0.066,16.246,7.265,62.0,14.61,37.8
-0.035,16.244,7.264,62.0,14.61,37.8
0.043,16.239,7.261,56.0,14.61,37.81
0.168,16.234,7.261,56.0,14.61,37.84
0.056,16.231,7.259,56.0,14.61,37.87
-0.062,16.227,7.256,56.0,14.61,37.85
-0.055,16.222,7.256,56.0,14.61,37.85
-0.055,16.219,7.254,56.0,14.61,37.75
-0.067,16.214,7.252,56.0,14.61,37.66
-0.071,16.211,7.251,56.0,14.61,37.68
-0.073,16.207,7.249,56.0,14.61,37.68
-0.071,16.202,7.249,56.0,14.61,37.69
-0.066,16.199,7.246,56.0,14.61,37.69
-0.062,16.194,7.244,56.0,14.61,37.67
-0.031,16.191,7.244,56.0,14.61,37.64
-0.005,16.187,7.242,56.0,14.61,37.65
-0.041,16.182,7.239,56.0,14.61,37.64
0.183,16.179,7.239,56.0,14.6,37.67
-0.021,16.174,7.237,68.0,14.61,37.68
0.021,16.172,7.237,68.0,14.61,37.69
0.125,16.167,7.234,68.0,14.61,37.7
0.216,16.162,7.233,68.0,14.6,37.71
0.03,16.159,7.232,68.0,14.6,37.71
-0.023,16.155,7.229,68.0,14.61,37.7
-0.015,16.152,7.228,68.0,14.6,37.69
-0.028,16.147,7.227,68.0,14.6,37.6
-0.041,16.144,7.225,68.0,14.6,37.57
-0.047,16.14,7.224,68.0,14.6,37.58
-0.049,16.137,7.222,68.0,14.6,37.58
-0.047,16.132,7.22,68.0,14.6,37.6
-0.045,16.13,7.219,68.0,14.6,37.61
-0.027,16.125,7.218,68.0,14.6,37.59
0.025,16.121,7.215,68.0,14.6,37.62
-0.053,16.117,7.214,68.0,14.6,37.64
0.218,16.115,7.213,68.0,14.6,37.66
-0.018,16.11,7.21,68.0,14.6,37.7
0.013,16.107,7.209,68.0,14.6,37.7
0.1,16.102,7.208,68.0,14.6,37.69
0.227,16.099,7.207,68.0,14.6,37.68
0.074,16.095,7.205,68.0,14.6,37.7
-0.025,16.091,7.204,68.0,14.6,37.7
-0.015,16.087,7.202,71.0,14.6,37.71
-0.026,16.084,7.2,71.0,14.6,37.62
-0.04,16.08,7.199,71.0,14.6,37.54
-0.041,16.076,7.197,71.0,14.6,37.55
-0.039,16.072,7.195,71.0,14.6,37.54
-0.034,16.069,7.194,71.0,14.6,37.56
-0.009,16.066,7.193,71.0,14.6,37.57
0.057,16.063,7.192,71.0,14.6,37.54
0.046,16.058,7.189,71.0,14.6,37.51
-0.026,16.053,7.189,71.0,14.6,37.47
0.216,16.05,7.187,71.0,14.6,37.38
-0.02,16.045,7.187,71.0,14.6,37.25
0.002,16.04,7.185,71.0,14.6,36.94
0.092,16.038,7.183,71.0,14.6,36.92
0.197,16.033,7.182,71.0,14.6,36.66
0.006,16.03,7.18,71.0,14.6,36.58
-0.072,16.029,7.179,55.0,14.6,36.42
-0.039,16.027,7.178,55.0,14.6,36.36
-0.027,16.024,7.177,55.0,14.6,36.2
-0.024,16.02,7.175,55.0,14.6,35.99
-0.018,16.018,7.173,55.0,14.6,36.07
-0.011,16.014,7.17,55.0,14.6,36.26
-0.01,16.01,7.169,55.0,14.6,36.45
-0.009,16.008,7.167,55.0,14.6,36.16
0.064,16.004,7.165,55.0,14.6,35.88
-0.009,16.002,7.164,55.0,14.6,35.76
0.211,15.998,7.162,55.0,14.6,35.69
0.003,15.997,7.16,55.0,14.6,35.5
0.017,15.993,7.159,55.0,14.6,35.37
0.078,15.99,7.158,55.0,14.6,35.32
0.215,15.987,7.157,55.0,14.6,35.34
0.183,15.984,7.155,55.0,14.6,35.54
-0.005,15.981,7.153,55.0,14.6,35.84
-0.015,15.977,7.152,56.0,14.6,36.18
-0.024,15.975,7.151,56.0,14.6,36.43
-0.044,15.971,7.148,56.0,14.6,36.56
-0.056,15.968,7.147,56.0,14.6,36.83
-0.059,15.966,7.145,56.0,14.6,37.14
0.01,15.962,7.145,56.0,14.6,37.49
-0.075,15.958,7.142,56.0,14.6,37.83
0.178,15.955,7.141,56.0,14.6,38.08
-0.057,15.953,7.14,56.0,14.6,38.31
-0.045,15.948,7.138,56.0,14.6,38.56
0.018,15.946,7.137,56.0,14.6,38.83
0.143,15.941,7.135,66.0,14.6,39.11
0.083,15.937,7.135,66.0,14.6,39.38
-0.053,15.933,7.132,66.0,14.6,39.6
-0.044,15.931,7.132,66.0,14.6,39.67
-0.047,15.927,7.13,66.0,14.6,39.57
-0.056,15.923,7.127,66.0,14.6,39.4
-0.051,15.921,7.127,66.0,14.6,39.28
0.025,15.916,7.125,66.0,14.6,39.19
-0.07,15.913,7.125,66.0,14.6,39.14
0.205,15.91,7.122,66.0,14.6,39.06
-0.043,15.906,7.122,66.0,14.6,38.91
-0.009,15.902,7.12,66.0,14.6,38.76
0.066,15.898,7.118,72.0,14.6,38.64
0.194,15.896,7.117,72.0,14.6,38.57
0.086,15.892,7.116,72.0,14.6,38.51
-0.025,15.889,7.115,72.0,14.6,38.43
-0.013,15.886,7.113,72.0,14.6,38.33
-0.02,15.881,7.112,72.0,14.6,38.12
-0.03,15.879,7.11,72.0,14.6,37.86
-0.031,15.875,7.108,72.0,14.6,37.75
-0.028,15.871,7.107,72.0,14.6,37.63
0.021,15.869,7.106,72.0,14.6,37.58
0.012,15.864,7.105,72.0,14.6,37.5
0.033,15.861,7.102,72.0,14.6,37.37
0.163,15.858,7.102,72.0,14.6,37.24
0.005,15.854,7.1,89.0,14.6,37.16
0.053,15.847,7.098,89.0,14.6,37.09
0.167,15.845,7.097,89.0,14.6,37.01
0.186,15.843,7.096,89.0,14.6,36.95
0.004,15.84,7.095,89.0,14.6,36.86
0.007,15.836,7.092,89.0,14.6,36.76
0.013,15.833,7.091,89.0,14.6,36.64
-0.001,15.829,7.09,89.0,14.6,36.36
-0.009,15.826,7.087,89.0,14.6,36.2
-0.015,15.823,7.087,89.0,14.6,36.05
-0.013,15.819,7.086,89.0,14.6,36.05
-0.013,15.816,7.083,89.0,14.6,36.06
-0.012,15.813,7.082,89.0,14.6,36.02
0.014,15.809,7.082,89.0,14.6,35.98
0.049,15.805,7.08,89.0,14.59,35.97
-0.016,15.802,7.078,89.0,14.59,35.94
0.22,15.799,7.077,89.0,14.59,35.93
0.01,15.796,7.076,89.0,14.59,35.92
0.047,15.792,7.075,71.0,14.59,35.93
0.142,15.787,7.075,71.0,14.59,35.94
0.224,15.784,7.078,71.0,14.59,35.94
0.041,15.778,7.077,71.0,14.6,35.93
-0.043,15.774,7.077,71.0,14.59,35.92
-0.051,15.773,7.08,71.0,14.59,35.93
-0.071,15.771,7.081,71.0,14.59,35.77
-0.076,15.768,7.08,71.0,14.59,35.85
-0.054,15.767,7.077,71.0,14.59,36.31
-0.046,15.764,7.061,71.0,14.59,36.73
-0.037,15.761,7.043,71.0,14.59,37.14
-0.029,15.757,7.024,71.0,14.59,37.5
-0.021,15.753,7.006,71.0,14.59,37.6
0.048,15.749,6.995,71.0,14.59,37.33
-0.036,15.747,6.991,71.0,14.59,37.2
0.218,15.743,6.991,71.0,14.59,37.23
-0.025,15.741,6.995,71.0,14.59,37.4
0.002,15.737,6.996,71.0,14.59,37.54
0.072,15.732,6.991,70.0,14.59,37.76
0.201,15.729,6.989,70.0,14.59,38.07
0.1,15.726,6.996,70.0,14.59,38.37
-0.034,15.723,7.0,70.0,14.59,38.61
-0.03,15.719,6.999,70.0,14.59,38.95
-0.039,15.717,6.993,70.0,14.59,39.11
-0.051,15.714,6.989,70.0,14.59,39.25
-0.057,15.711,6.985,70.0,14.59,39.48
-0.058,15.707,6.98,70.0,14.59,39.63
0.011,15.706,6.974,70.0,14.59,39.79
-0.046,15.702,6.972,70.0,14.59,39.91
0.159,15.7,6.968,70.0,14.59,39.83
0.009,15.696,6.968,70.0,14.59,39.65
-0.011,15.694,6.968,70.0,14.59,39.49
0.046,15.691,6.966,70.0,14.59,39.39
0.174,15.689,6.963,93.0,14.59,39.3
0.167,15.687,6.961,93.0,14.59,39.22
-0.004,15.684,6.959,93.0,14.59,39.11
0.0,15.682,6.957,93.0,14.59,39.03
0.002,15.681,6.966,93.0,14.59,38.88
-0.017,15.679,6.986,93.0,14.59,38.66
-0.024,15.677,7.002,93.0,14.59,38.54
-0.023,15.676,7.006,93.0,14.59,38.45
-0.021,15.674,7.01,93.0,14.59,38.39
0.015,15.672,7.013,93.0,14.59,38.33
0.036,15.67,7.015,93.0,14.59,38.21
0.0,15.669,7.018,93.0,14.59,37.98
0.217,15.666,7.02,93.0,14.59,37.8
0.011,15.664,7.023,93.0,14.59,37.68
0.052,15.662,7.02,93.0,14.59,37.62
0.155,15.66,7.012,93.0,14.59,37.57
0.248,15.659,7.006,93.0,14.59,37.52
0.056,15.656,7.005,93.0,14.59,37.4
-0.001,15.656,7.005,93.0,14.59,37.2
0.002,15.656,7.005,93.0,14.59,36.98
-0.014,15.656,7.005,93.0,14.59,36.58
-0.027,15.659,7.005,93.0,14.59,36.26
-0.03,15.662,7.005,93.0,14.59,36.02
-0.029,15.665,7.005,93.0,14.59,35.8
-0.025,15.672,7.006,93.0,14.59,35.72
0.047,15.678,7.008,93.0,14.59,35.69
-0.022,15.688,7.01,93.0,14.59,35.62
0.206,15.701,7.011,93.0,14.59,35.57
-0.001,15.714,7.014,93.0,14.59,35.52
0.017,15.729,7.016,93.0,14.59,35.54
0.078,15.748,7.019,93.0,14.59,35.57
0.215,15.769,7.024,93.0,14.59,35.63
0.191,15.793,7.029,93.0,14.59,35.67
0.0,15.82,7.034,93.0,14.59,35.68
-0.009,15.85,7.04,93.0,14.59,35.7
-0.011,15.882,7.046,93.0,14.59,35.71
-0.026,15.916,7.054,93.0,14.59,35.54
-0.03,15.952,7.062,93.0,14.59,35.43
-0.042,15.992,7.072,93.0,14.59,35.38
-0.054,16.032,7.087,93.0,14.59,35.41
-0.048,16.074,7.111,93.0,14.59,35.5
-0.037,16.117,7.133,93.0,14.59,35.51
-0.125,16.16,7.146,93.0,14.59,35.48
0.104,16.207,7.16,93.0,14.59,35.56
-0.139,16.253,7.174,93.0,14.59,35.77
-0.114,16.3,7.184,93.0,14.59,35.93
-0.03,16.348,7.195,93.0,14.59,36.29
0.07,16.396,7.21,93.0,14.59,36.64
-0.104,16.443,7.227,93.0,14.59,36.94
-0.157,16.488,7.244,93.0,14.59,37.3
-0.143,16.535,7.262,93.0,14.59,37.69
-0.145,16.578,7.276,93.0,14.59,38.42
-0.14,16.622,7.286,93.0,14.59,39.08
-0.112,16.666,7.296,93.0,14.59,39.41
-0.048,16.706,7.308,93.0,14.59,39.72
-0.126,16.748,7.32,93.0,14.59,39.8
0.157,16.787,7.331,93.0,14.59,39.81
-0.085,16.826,7.343,93.0,14.59,39.66
-0.046,16.863,7.353,93.0,14.59,39.51
0.042,16.899,7.365,70.0,14.59,39.45
0.162,16.933,7.375,70.0,14.58,39.32
0.032,16.967,7.385,70.0,14.59,39.13
-0.038,16.998,7.394,70.0,14.59,38.91
-0.015,17.028,7.399,70.0,14.58,38.67
-0.026,17.055,7.407,70.0,14.59,38.34
-0.036,17.079,7.413,70.0,14.59,38.02
-0.037,17.102,7.424,70.0,14.59,37.81
-0.035,17.135,7.445,70.0,14.59,37.56
-0.026,17.151,7.452,70.0,14.59,37.44
0.035,17.16,7.461,70.0,14.59,37.31
0.194,17.178,7.472,70.0,14.59,37.1
0.216,17.192,7.482,70.0,14.58,36.93
-0.018,17.206,7.491,70.0,14.59,36.74
0.018,17.217,7.5,61.0,14.59,36.59
0.096,17.228,7.507,61.0,14.59,36.41
0.227,17.238,7.516,61.0,14.59,36.13
0.138,17.246,7.523,61.0,14.59,36.12
0.0,17.253,7.528,61.0,14.59,35.98
0.005,17.258,7.533,61.0,14.58,35.9
0.001,17.263,7.541,61.0,14.58,35.71
-0.016,17.266,7.548,61.0,14.58,35.5
-0.023,17.27,7.553,61.0,14.58,35.43
-0.027,17.27,7.558,61.0,14.58,35.38
-0.028,17.271,7.564,61.0,14.58,35.36
-0.026,17.272,7.57,61.0,14.58,35.37
0.0,17.271,7.573,61.0,14.58,35.34
0.037,17.27,7.578,61.0,14.58,35.32
-0.033,17.267,7.581,61.0,14.58,35.3
0.204,17.265,7.586,61.0,14.58,35.3
-0.007,17.261,7.587,61.0,14.58,35.3
0.026,17.258,7.59,61.0,14.58,35.29
0.121,17.252,7.59,74.0,14.58,35.3
0.227,17.246,7.59,74.0,14.58,35.3
0.049,17.241,7.591,74.0,14.58,35.32
-0.031,17.233,7.592,74.0,14.58,35.31
-0.028,17.227,7.592,74.0,14.58,35.32
-0.048,17.219,7.592,74.0,14.58,35.2
-0.071,17.21,7.592,74.0,14.58,35.24
-0.091,17.201,7.592,74.0,14.58,35.45
-0.105,17.192,7.592,74.0,14.58,35.78
-0.113,17.18,7.591,74.0,14.58,36.2
-0.108,17.17,7.59,74.0,14.58,36.6
-0.06,17.16,7.59,74.0,14.58,36.96
-0.148,17.147,7.59,74.0,14.58,37.31
0.123,17.136,7.587,74.0,14.58,37.66
-0.131,17.124,7.587,74.0,14.58,37.97
-0.102,17.112,7.587,74.0,14.58,38.29
-0.027,17.098,7.586,78.0,14.58,38.56
0.092,17.084,7.585,78.0,14.58,38.84
-0.021,17.07,7.585,78.0,14.58,39.09
-0.116,17.057,7.585,78.0,14.58,39.25
-0.107,17.044,7.582,78.0,14.58,39.39
-0.113,17.03,7.581,78.0,14.58,39.33
-0.12,17.015,7.58,78.0,14.58,39.22
-0.117,17.0,7.578,78.0,14.58,39.13
-0.115,16.987,7.577,78.0,14.58,39.02
-0.088,16.972,7.575,78.0,14.58,38.95
-0.04,16.957,7.573,78.0,14.58,38.85
-0.11,16.943,7.57,78.0,14.58,38.69
0.154,16.93,7.568,78.0,14.58,38.53
-0.074,16.915,7.565,78.0,14.58,38.42
-0.031,16.9,7.563,78.0,14.58,38.32
0.067,16.887,7.56,62.0,14.58,38.24
0.183,16.871,7.558,62.0,14.58,38.14
0.028,16.858,7.557,62.0,14.58,38.05
-0.038,16.843,7.553,62.0,14.58,37.9
-0.024,16.828,7.551,62.0,14.58,37.74
-0.033,16.814,7.55,62.0,14.58,37.44
-0.042,16.801,7.548,62.0,14.58,37.19
-0.042,16.788,7.551,62.0,14.58,37.08
-0.04,16.773,7.551,62.0,14.58,36.95
-0.04,16.759,7.558,62.0,14.58,36.9
-0.013,16.747,7.56,62.0,14.58,36.81
0.011,16.739,7.56,62.0,14.58,36.69
-0.041,16.731,7.556,62.0,14.58,36.6
0.167,16.722,7.553,62.0,14.57,36.53
-0.022,16.709,7.548,80.0,14.58,36.48
0.029,16.694,7.546,80.0,14.58,36.43
0.139,16.68,7.541,80.0,14.57,36.38
0.247,16.668,7.534,80.0,14.57,36.2
0.064,16.658,7.528,80.0,14.57,36.07
-0.002,16.648,7.523,80.0,14.57,35.95
0.007,16.635,7.516,80.0,14.57,35.84
0.0,16.623,7.511,80.0,14.57,35.63
-0.014,16.61,7.506,80.0,14.57,35.42
-0.02,16.599,7.501,80.0,14.57,35.28
-0.02,16.588,7.499,80.0,14.57,35.18
-0.013,16.577,7.494,80.0,14.57,35.2
0.05,16.564,7.489,80.0,14.57,35.12
-0.042,16.547,7.484,80.0,14.58,34.95
0.215,16.532,7.479,80.0,14.57,34.9
-0.013,16.517,7.474,80.0,14.57,34.93
0.006,16.503,7.468,80.0,14.57,35.05
0.078,16.489,7.462,84.0,14.57,35.21
0.199,16.476,7.456,84.0,14.57,35.48
0.06,16.464,7.451,84.0,14.57,36.06
-0.057,16.453,7.446,84.0,14.57,36.66
-0.057,16.441,7.441,84.0,14.57,37.27
-0.079,16.429,7.436,84.0,14.57,37.55
-0.093,16.419,7.433,84.0,14.57,37.72
-0.06,16.409,7.429,84.0,14.57,37.99
-0.039,16.397,7.425,84.0,14.57,38.21
-0.081,16.387,7.422,84.0,14.57,38.46
0.135,16.377,7.417,84.0,14.57,38.59
-0.066,16.367,7.413,84.0,14.57,38.72
-0.014,16.357,7.409,84.0,14.57,38.8
0.09,16.344,7.404,111.0,14.57,38.82
0.175,16.336,7.401,111.0,14.57,38.77
-0.002,16.325,7.397,111.0,14.57,38.71
-0.039,16.317,7.392,111.0,14.57,38.68
-0.037,16.307,7.388,111.0,14.57,38.6
-0.049,16.297,7.384,111.0,14.57,38.36
-0.053,16.287,7.379,111.0,14.57,38.15
-0.011,16.28,7.376,111.0,14.57,37.96
0.007,16.27,7.372,111.0,14.57,37.75
-0.025,16.261,7.367,111.0,14.57,37.57
