ECG,EMG,foot GSR,HR,marker,RESP
-0.024,0.98675,9.172,82.0,9.23,45.73
-0.081,0.999625,9.158,82.0,9.34,45.59
0.225,1.0515,9.168,82.0,9.34,45.42
-0.103,1.00225,9.191,82.0,9.34,45.25
0.002,0.9815,9.176,82.0,9.34,45.05
0.196,0.9375,12.789,75.0,9.32,46.49
0.281,0.9245,13.022,75.0,9.3,46.58
-0.064,0.911625,13.119,75.0,9.32,46.61
-0.088,0.88825,13.174,75.0,9.3,46.62
-0.074,0.932375,13.203,75.0,9.29,46.6
-0.076,0.963375,13.238,75.0,9.29,46.59
-0.085,0.997125,13.271,75.0,9.29,46.55
-0.021,1.01525,13.297,75.0,9.28,46.55
-0.09,0.976375,13.317,75.0,9.29,46.55
0.211,1.020375,13.332,75.0,9.34,46.56
-0.114,1.023,13.343,75.0,9.38,46.59
-0.009,0.9375,13.35,75.0,9.34,46.61
0.18,0.947875,13.352,77.0,9.34,46.6
0.273,0.978875,13.352,77.0,9.33,46.6
-0.075,0.9375,13.35,77.0,9.34,46.64
-0.101,0.976375,13.345,77.0,9.34,46.69
-0.088,0.91675,13.336,77.0,9.33,46.76
-0.095,0.890875,13.326,77.0,9.33,46.85
-0.068,0.94525,13.313,77.0,9.34,46.99
-0.084,0.922,13.296,77.0,9.34,47.22
-0.08,0.90125,13.278,77.0,9.34,47.46
0.094,0.95825,13.257,77.0,9.34,47.67
-0.056,0.922,13.236,77.0,9.34,47.87
0.073,0.98675,13.211,77.0,9.34,48.09
0.309,0.9505,13.185,81.0,9.34,48.3
-0.031,1.03075,13.158,81.0,9.34,48.58
-0.12,1.067,13.128,81.0,9.34,48.85
-0.107,1.007375,13.097,81.0,9.35,49.07
-0.105,0.971125,13.066,81.0,9.35,49.21
-0.052,0.968625,13.032,81.0,9.36,49.34
-0.155,0.976375,13.0,81.0,9.36,49.54
0.131,0.963375,12.964,81.0,9.36,49.8
-0.127,0.9245,12.93,81.0,9.36,50.03
-0.03,0.867625,12.893,81.0,9.36,50.23
0.198,0.90125,12.858,88.0,9.36,50.39
0.158,0.91425,12.823,88.0,9.35,50.55
-0.131,1.012625,12.789,88.0,9.35,50.82
-0.141,0.997125,12.754,88.0,9.34,51.08
-0.124,0.9945,12.719,88.0,9.34,51.26
-0.065,0.98925,12.685,88.0,9.34,51.35
-0.167,1.048875,12.652,88.0,9.34,51.47
0.141,1.06175,12.621,88.0,9.34,51.84
-0.164,1.054,12.59,88.0,9.34,52.09
-0.047,0.96075,12.558,88.0,9.34,52.27
0.174,0.96075,12.529,91.0,9.34,52.4
0.164,1.01525,12.499,91.0,9.34,52.52
-0.143,0.98675,12.471,91.0,9.34,52.7
-0.158,0.940125,12.444,91.0,9.34,52.89
-0.127,0.88575,12.417,91.0,9.34,53.07
-0.087,0.841625,12.391,91.0,9.34,53.21
-0.192,0.91675,12.366,91.0,9.34,53.4
0.115,0.9245,12.343,91.0,9.34,53.59
-0.11,1.00225,12.32,91.0,9.34,53.75
-0.011,0.932375,12.3,91.0,9.34,53.87
0.263,0.966,12.281,95.0,9.34,54.02
0.044,0.947875,12.267,95.0,9.34,54.15
-0.152,1.067,12.255,95.0,9.33,54.26
-0.147,1.121375,12.249,95.0,9.33,54.4
-0.099,0.971125,12.249,95.0,9.34,54.51
-0.106,0.96075,12.255,95.0,9.34,54.64
-0.176,1.007375,12.27,95.0,9.34,54.75
0.148,0.971125,12.295,95.0,9.34,54.85
-0.088,0.940125,12.333,95.0,9.34,54.94
0.045,0.8805,12.378,95.0,9.33,54.99
0.311,0.85725,12.437,95.0,9.32,55.0
-0.032,0.865,12.505,95.0,9.32,55.0
-0.148,0.88825,12.586,95.0,9.32,54.97
-0.133,0.940125,12.67,95.0,9.3,54.92
-0.107,0.968625,12.764,95.0,9.3,54.8
-0.061,0.932375,12.858,95.0,9.29,54.72
-0.163,0.91675,12.955,95.0,9.29,54.65
0.161,1.054,13.049,95.0,9.29,54.59
-0.086,1.035875,13.144,95.0,9.29,54.52
0.004,0.96075,13.235,95.0,9.29,54.41
0.284,0.9945,13.323,90.0,9.29,54.27
0.1,0.971125,13.404,90.0,9.29,54.11
-0.119,0.997125,13.48,90.0,9.29,53.91
-0.117,1.007375,13.547,90.0,9.28,53.72
-0.098,0.942625,13.608,90.0,9.28,53.47
-0.095,0.8935,13.66,90.0,9.28,53.28
-0.044,0.8935,13.706,90.0,9.27,53.12
-0.139,0.90125,13.746,90.0,9.25,52.92
0.192,0.96075,13.777,90.0,9.18,52.7
-0.075,0.94525,13.802,90.0,9.19,52.43
0.01,0.911625,13.822,90.0,9.25,52.23
0.267,0.91675,13.836,90.0,9.24,52.0
0.18,0.9245,13.846,90.0,9.23,51.73
-0.096,1.00225,13.853,83.0,9.27,51.51
-0.1,0.966,13.857,83.0,9.35,51.32
-0.084,0.9815,13.854,83.0,9.4,51.07
-0.09,0.9375,13.849,83.0,9.24,50.85
-0.095,0.906375,13.841,83.0,9.29,50.64
-0.056,0.95825,13.829,83.0,9.23,50.47
-0.053,0.8935,13.815,83.0,9.28,50.32
-0.102,0.8805,13.799,83.0,9.23,50.15
0.219,0.839125,13.779,83.0,9.22,50.0
-0.03,0.808,13.756,83.0,9.43,49.86
0.093,0.87275,13.731,83.0,9.56,49.73
0.364,0.898625,13.703,83.0,9.49,49.61
0.051,0.88825,13.674,83.0,9.43,49.45
-0.073,0.88825,13.642,73.0,9.63,49.29
-0.061,0.91675,13.609,73.0,9.76,49.13
-0.054,0.903875,13.577,73.0,9.4,48.94
-0.061,0.9815,13.542,73.0,9.35,48.78
-0.064,1.012625,13.509,73.0,9.5,48.64
-0.039,0.999625,13.475,73.0,9.83,48.5
-0.003,0.978875,13.442,73.0,10.0,48.38
-0.091,0.94525,13.411,73.0,9.96,48.29
0.264,1.004875,13.381,73.0,9.79,48.22
-0.005,0.919375,13.353,73.0,9.67,48.11
0.091,0.8935,13.326,73.0,9.65,48.0
0.367,0.833875,13.301,73.0,9.76,47.9
0.144,0.8365,13.28,73.0,10.08,47.82
-0.049,0.903875,13.26,70.0,10.3,47.74
-0.043,0.98675,13.241,70.0,10.44,47.66
-0.039,1.028125,13.226,70.0,10.48,47.52
-0.047,1.01775,13.211,70.0,10.49,47.41
-0.05,0.9815,13.2,70.0,10.39,47.3
0.004,1.0255,13.19,70.0,10.4,47.19
-0.039,1.06175,13.18,70.0,10.41,47.12
0.095,1.041125,13.17,70.0,10.41,47.05
0.082,1.067,13.162,70.0,10.43,47.01
0.006,1.04625,13.154,70.0,10.4,46.94
0.152,1.007375,13.145,70.0,10.4,46.87
0.373,1.020375,13.137,70.0,10.72,46.81
-0.001,0.955625,13.128,70.0,10.68,46.79
-0.072,0.927125,13.118,73.0,10.57,46.78
-0.064,0.870125,13.108,73.0,10.52,46.77
-0.066,0.909,13.097,73.0,10.48,46.7
-0.075,0.9375,13.084,73.0,10.45,46.63
-0.059,0.968625,13.072,73.0,10.49,46.61
-0.013,0.97375,13.057,73.0,10.49,46.61
-0.109,0.963375,13.042,73.0,10.54,46.63
0.204,1.007375,13.027,73.0,10.68,46.66
-0.038,1.0515,13.012,73.0,10.68,46.69
0.04,1.043625,12.995,73.0,10.67,46.68
0.3,1.054,12.977,73.0,10.65,46.66
0.152,0.999625,12.959,73.0,10.62,46.65
-0.083,1.043625,12.942,75.0,10.6,46.66
-0.083,1.0515,12.925,75.0,10.61,46.69
-0.074,0.997125,12.908,75.0,10.59,46.65
-0.083,0.940125,12.893,75.0,10.6,46.63
-0.085,0.922,12.878,75.0,10.67,46.61
-0.022,0.9375,12.866,75.0,10.77,46.61
-0.113,1.0385,12.854,75.0,10.73,46.62
0.177,1.012625,12.844,75.0,10.82,46.68
-0.083,1.06175,12.836,75.0,11.13,46.74
-0.006,1.00225,12.828,75.0,11.71,46.82
0.216,1.020375,12.821,75.0,13.67,46.93
0.206,1.11875,12.816,75.0,18.14,47.1
-0.103,1.1265,12.81,75.0,24.86,47.27
-0.124,1.105875,12.804,75.0,32.89,47.38
-0.117,1.09025,12.799,75.0,41.49,47.46
-0.113,1.08775,12.795,75.0,57.08,47.59
-0.074,1.054,12.791,75.0,64.82,47.78
-0.169,1.077375,12.786,75.0,59.41,47.96
0.118,1.0515,12.784,75.0,47.58,48.1
-0.097,1.0515,12.779,75.0,38.04,48.3
0.209,1.06175,12.772,75.0,38.46,48.54
0.293,1.0385,12.766,75.0,39.68,48.75
0.073,1.144625,12.761,75.0,45.54,48.89
-0.147,1.11625,12.755,85.0,52.35,49.09
-0.147,1.064375,12.749,85.0,55.37,49.32
-0.135,1.064375,12.734,85.0,57.27,49.61
-0.078,1.144625,12.734,85.0,54.51,49.62
-0.178,1.18875,12.727,85.0,49.51,49.79
0.122,1.209375,12.72,85.0,42.11,49.98
-0.166,1.18875,12.713,85.0,31.64,50.15
-0.053,1.17575,12.705,85.0,28.13,50.21
0.17,1.178375,12.695,91.0,29.36,50.36
0.159,1.105875,12.688,91.0,35.6,50.6
-0.149,1.08,12.682,91.0,51.31,50.86
-0.159,1.033375,12.678,91.0,60.01,51.06
-0.135,1.023,12.677,91.0,60.43,51.15
-0.086,0.9945,12.679,91.0,56.11,51.22
-0.192,1.069625,12.684,91.0,49.87,51.31
0.105,1.144625,12.693,91.0,35.97,51.4
-0.127,1.111,12.707,91.0,24.45,51.54
-0.031,1.03075,12.72,91.0,18.67,51.63
0.241,1.01,12.74,94.0,16.07,51.8
0.073,1.10325,12.761,94.0,15.52,51.99
-0.159,1.064375,12.787,94.0,14.91,52.15
-0.164,1.072125,12.819,94.0,14.68,52.36
-0.117,0.9815,12.855,94.0,14.05,52.53
-0.121,1.023,12.893,94.0,13.58,52.65
-0.194,0.94525,12.94,94.0,13.54,52.86
0.12,0.95825,12.99,94.0,13.43,53.07
-0.111,0.940125,13.047,94.0,13.26,53.23
0.024,0.911625,13.109,94.0,13.11,53.41
0.303,0.85975,13.177,95.0,12.95,53.66
-0.064,0.906375,13.248,95.0,13.16,53.86
-0.174,0.9945,13.325,95.0,13.59,54.05
-0.163,1.01,13.402,95.0,13.61,54.24
-0.119,0.9815,13.48,95.0,13.42,54.45
-0.119,1.020375,13.557,95.0,13.28,54.68
-0.187,1.04625,13.631,95.0,13.34,54.93
0.138,1.10325,13.706,95.0,13.54,55.16
-0.105,1.098125,13.777,95.0,13.56,55.35
0.033,1.092875,13.843,95.0,13.54,55.57
0.318,1.085125,13.907,93.0,13.5,55.83
-0.057,1.08775,13.966,93.0,13.34,56.07
-0.172,1.033375,14.018,93.0,13.22,56.25
-0.16,1.035875,14.066,93.0,13.09,56.37
-0.144,0.9945,14.109,93.0,13.3,56.47
-0.089,0.92975,14.147,93.0,13.12,56.53
-0.167,0.968625,14.182,93.0,13.11,56.48
0.174,1.01775,14.211,93.0,13.09,56.41
-0.176,1.01525,14.233,93.0,13.06,56.27
-0.07,1.054,14.25,93.0,13.06,56.15
0.137,1.0515,14.264,87.0,13.09,56.05
0.268,1.033375,14.271,87.0,13.09,55.93
-0.124,1.043625,14.277,87.0,13.06,55.76
-0.154,1.100625,14.279,87.0,13.01,55.59
-0.137,1.098125,14.282,87.0,12.93,55.39
-0.132,1.11625,14.282,87.0,12.83,55.15
-0.128,1.0255,14.282,87.0,12.82,54.89
-0.065,1.041125,14.282,87.0,12.84,54.7
-0.156,1.03075,14.283,87.0,12.84,54.49
0.182,1.03075,14.285,87.0,12.99,54.23
-0.084,1.01525,14.29,87.0,12.98,53.99
0.005,0.934875,14.295,87.0,13.0,53.76
0.276,0.953,14.301,87.0,13.09,53.52
0.192,1.035875,14.308,87.0,13.0,53.3
-0.087,1.004875,14.317,79.0,13.08,53.03
-0.086,1.085125,14.328,79.0,13.04,52.7
-0.064,0.98675,14.338,79.0,12.9,52.36
-0.067,1.033375,14.346,79.0,12.84,52.05
-0.07,1.11875,14.355,79.0,12.92,51.8
-0.049,1.129125,14.363,79.0,12.94,51.54
-0.01,1.1265,14.37,79.0,12.99,51.29
-0.086,1.041125,14.375,79.0,13.04,51.01
0.275,1.06175,14.377,79.0,13.04,50.77
0.006,1.028125,14.382,79.0,13.01,50.6
0.106,0.978875,14.384,79.0,12.94,50.45
0.388,1.023,14.385,79.0,12.87,50.3
0.159,0.947875,14.386,79.0,12.83,50.14
-0.034,0.94525,14.389,72.0,12.86,49.97
-0.031,0.98925,14.39,72.0,12.83,49.75
-0.022,0.997125,14.394,72.0,12.82,49.52
-0.034,1.020375,14.403,72.0,12.78,49.31
-0.041,1.06175,14.414,72.0,12.71,49.15
-0.025,1.035875,14.434,72.0,12.67,49.0
0.02,1.077375,14.458,72.0,12.69,48.88
-0.07,1.08775,14.489,72.0,12.65,48.77
0.268,1.11625,14.528,72.0,12.59,48.67
0.009,1.08,14.571,72.0,12.56,48.57
0.097,1.041125,14.619,72.0,12.55,48.5
0.371,1.0255,14.67,72.0,12.53,48.43
0.212,1.03075,14.724,72.0,12.51,48.32
-0.025,1.041125,14.778,72.0,12.49,48.21
-0.022,0.955625,14.831,71.0,12.48,48.07
-0.014,0.883125,14.88,71.0,12.47,47.9
-0.024,0.898625,14.927,71.0,12.44,47.76
-0.032,0.934875,14.97,71.0,12.43,47.62
0.0,0.96075,15.006,71.0,12.4,47.5
0.001,0.999625,15.038,71.0,12.39,47.41
-0.065,0.942625,15.063,71.0,12.38,47.36
0.259,0.98675,15.083,71.0,12.36,47.31
0.008,0.971125,15.094,71.0,12.33,47.25
0.119,1.035875,15.103,71.0,12.34,47.19
0.396,1.056625,15.104,71.0,12.34,47.11
0.106,1.041125,15.102,71.0,12.34,47.04
-0.046,0.98925,15.097,72.0,12.33,47.02
-0.042,0.96075,15.086,72.0,12.32,47.0
-0.04,0.971125,15.071,72.0,12.29,46.96
-0.052,0.911625,15.052,72.0,12.27,46.92
-0.055,0.890875,15.031,72.0,12.27,46.89
0.008,0.90125,15.007,72.0,12.26,46.89
-0.081,0.953,14.98,72.0,12.25,46.91
0.222,0.95825,14.952,72.0,12.25,46.93
-0.056,0.94525,14.923,72.0,12.23,46.92
0.028,0.9245,14.89,72.0,12.22,46.91
0.247,0.968625,14.857,72.0,12.22,46.91
0.277,0.9815,14.821,72.0,12.22,46.92
-0.054,0.999625,14.784,72.0,12.2,46.94
-0.071,1.004875,14.744,75.0,12.2,46.95
-0.063,1.035875,14.703,75.0,12.17,46.92
-0.073,1.01525,14.661,75.0,12.16,46.86
-0.082,0.96075,14.616,75.0,12.16,46.82
-0.031,0.971125,14.571,75.0,12.16,46.82
-0.077,0.97375,14.525,75.0,12.15,46.85
0.149,0.903875,14.475,75.0,12.15,46.87
-0.041,0.883125,14.424,75.0,12.14,46.88
-0.014,0.9245,14.373,75.0,12.11,46.86
0.144,0.934875,14.321,75.0,12.09,46.83
0.345,0.955625,14.268,75.0,12.1,46.86
-0.026,0.976375,14.213,75.0,12.12,46.88
-0.078,0.911625,14.157,75.0,12.12,46.91
-0.068,0.9945,14.1,75.0,12.11,46.89
-0.069,1.054,14.044,75.0,12.12,46.85
-0.08,1.0255,13.987,75.0,12.11,46.81
-0.049,1.054,13.932,75.0,12.1,46.81
-0.045,0.9945,13.877,75.0,12.09,46.81
-0.092,0.997125,13.823,75.0,12.09,46.81
0.189,0.9815,13.768,75.0,12.07,46.86
-0.029,0.947875,13.717,75.0,11.93,46.87
0.088,0.963375,13.665,75.0,11.9,46.85
0.356,0.890875,13.617,75.0,11.93,46.86
0.055,0.84425,13.572,75.0,11.93,46.88
-0.078,0.91425,13.528,75.0,11.94,46.88
-0.07,0.9815,13.489,75.0,11.99,46.87
-0.069,1.00225,13.452,75.0,12.17,46.82
-0.079,0.98675,13.417,75.0,12.28,46.79
-0.057,0.95825,13.386,75.0,12.29,46.79
-0.05,1.028125,13.358,75.0,12.22,46.83
-0.109,0.997125,13.333,75.0,12.2,46.82
0.182,1.077375,13.308,75.0,12.09,46.83
-0.04,1.085125,13.286,75.0,11.94,46.82
0.073,0.978875,13.267,75.0,11.9,46.81
0.34,0.978875,13.247,75.0,11.81,46.83
0.043,0.976375,13.229,75.0,11.84,46.87
-0.096,0.963375,13.21,77.0,11.81,46.88
-0.092,0.976375,13.191,77.0,11.88,46.84
-0.089,0.932375,13.174,77.0,11.85,46.83
-0.102,1.01525,13.155,77.0,11.76,46.82
-0.058,0.9815,13.137,77.0,11.75,46.82
-0.108,1.004875,13.119,77.0,11.76,46.81
0.075,1.0385,13.101,77.0,11.75,46.8
-0.056,0.9375,13.081,77.0,11.67,46.81
-0.052,1.01775,13.061,77.0,11.64,46.83
0.102,1.023,13.042,79.0,11.62,46.81
0.303,0.9945,13.024,79.0,11.6,46.81
-0.06,1.08,13.002,79.0,11.6,46.83
-0.116,1.01,12.981,79.0,11.56,46.86
-0.113,0.978875,12.962,79.0,11.56,46.85
-0.115,0.978875,12.94,79.0,11.55,46.8
-0.122,0.98675,12.92,79.0,11.55,46.77
-0.067,0.947875,12.9,79.0,11.53,46.78
-0.158,0.90125,12.861,79.0,11.53,46.77
0.124,0.821,12.857,79.0,11.51,46.78
-0.109,0.911625,12.838,79.0,11.5,46.81
-0.028,0.9815,12.82,79.0,11.5,46.81
0.206,0.963375,12.8,80.0,11.49,46.8
0.182,0.906375,12.78,80.0,11.48,46.82
-0.111,0.942625,12.76,80.0,11.48,46.83
-0.119,0.9945,12.74,80.0,11.46,46.8
-0.109,0.953,12.723,80.0,11.45,46.75
-0.12,1.0255,12.704,80.0,11.45,46.79
-0.075,0.997125,12.686,80.0,11.45,46.86
-0.131,0.966,12.668,80.0,11.44,46.93
0.095,0.953,12.652,80.0,11.43,46.97
-0.124,0.932375,12.634,80.0,11.43,47.05
-0.068,0.922,12.622,80.0,11.43,47.16
0.097,0.934875,12.611,82.0,11.43,47.33
0.281,0.875375,12.605,82.0,11.42,47.51
-0.088,0.870125,12.602,82.0,11.4,47.71
-0.14,0.9375,12.605,82.0,11.4,47.89
-0.13,0.9505,12.613,82.0,11.4,48.05
-0.115,0.978875,12.628,82.0,11.39,48.16
-0.097,0.932375,12.649,82.0,11.39,48.32
-0.195,0.94525,12.678,82.0,11.38,48.69
0.096,0.953,12.711,82.0,11.38,49.01
-0.108,0.98675,12.748,82.0,11.38,49.19
-0.006,1.01525,12.791,82.0,11.37,49.31
0.262,0.940125,12.837,88.0,11.37,49.41
0.006,0.97375,12.884,88.0,11.35,49.56
-0.162,0.8935,12.931,88.0,11.35,49.75
-0.158,0.909,12.978,88.0,11.35,49.95
-0.145,0.90125,13.024,88.0,11.35,50.06
-0.118,0.898625,13.066,88.0,11.34,50.19
-0.219,0.877875,13.106,88.0,11.34,50.38
0.071,0.911625,13.144,88.0,11.34,50.61
-0.137,0.92975,13.175,88.0,11.33,50.8
-0.041,0.932375,13.201,88.0,11.33,50.98
0.226,0.95825,13.225,93.0,11.33,51.17
0.024,0.94525,13.243,93.0,11.32,51.31
-0.182,0.984125,13.256,93.0,11.32,51.44
-0.179,0.92975,13.267,93.0,11.31,51.55
-0.144,1.043625,13.274,93.0,11.31,51.58
-0.126,1.020375,13.28,93.0,11.31,51.59
-0.228,0.97375,13.282,93.0,11.31,51.66
0.084,0.947875,13.282,93.0,11.29,51.81
-0.133,0.934875,13.28,93.0,11.29,51.91
-0.023,0.98925,13.276,93.0,11.29,51.96
0.258,0.88825,13.268,93.0,11.28,52.05
-0.024,0.87275,13.259,93.0,11.28,52.15
-0.185,0.852,13.249,93.0,11.28,52.23
-0.181,0.91425,13.24,93.0,11.28,52.36
-0.141,0.932375,13.229,93.0,11.28,52.43
-0.13,0.92975,13.214,93.0,11.28,52.47
-0.22,0.932375,13.198,93.0,11.27,52.55
-0.02,0.978875,13.18,93.0,11.27,52.64
-0.097,0.96075,13.164,93.0,11.27,52.68
0.005,1.0255,13.146,93.0,11.26,52.65
0.292,1.07475,13.124,95.0,11.26,52.58
-0.001,0.984125,13.103,95.0,11.26,52.47
-0.141,1.004875,13.061,95.0,11.26,52.26
-0.13,0.953,13.06,95.0,11.24,52.25
-0.11,0.942625,13.036,95.0,11.24,52.06
-0.057,0.934875,13.015,95.0,11.24,51.85
-0.111,0.896125,12.992,95.0,11.24,51.63
0.086,0.91425,12.969,95.0,11.23,51.39
-0.022,0.852,12.945,95.0,11.23,51.11
-0.029,0.8935,12.924,95.0,11.23,50.81
0.144,0.932375,12.9,95.0,11.23,50.52
0.351,0.865,12.88,95.0,11.23,50.26
-0.036,0.953,12.856,95.0,11.22,50.08
-0.088,0.906375,12.833,85.0,11.22,49.91
-0.076,0.940125,12.812,85.0,11.22,49.69
-0.073,0.98925,12.79,85.0,11.22,49.42
-0.08,0.978875,12.768,85.0,11.22,49.21
-0.015,0.978875,12.748,85.0,11.21,49.1
-0.105,0.909,12.725,85.0,11.21,48.99
0.244,0.87275,12.706,85.0,11.21,48.85
-0.11,0.932375,12.686,85.0,11.21,48.7
-0.005,0.883125,12.663,85.0,11.2,48.54
0.211,0.854625,12.643,85.0,11.2,48.39
0.311,0.8235,12.623,85.0,11.2,48.26
-0.054,0.875375,12.604,85.0,11.2,48.15
-0.076,0.9375,12.584,79.0,11.18,48.04
-0.065,0.92975,12.566,79.0,11.18,47.88
-0.066,0.9505,12.546,79.0,11.18,47.69
-0.074,0.92975,12.527,79.0,11.18,47.51
-0.043,1.007375,12.509,79.0,11.18,47.4
-0.032,0.976375,12.493,79.0,11.18,47.33
-0.111,1.01,12.46,79.0,11.18,47.24
0.236,0.9815,12.456,79.0,11.17,47.23
-0.025,0.968625,12.442,79.0,11.17,47.17
0.077,0.9505,12.426,79.0,11.17,47.12
0.369,0.9505,12.411,79.0,11.17,47.09
0.12,0.966,12.397,79.0,11.17,47.05
-0.066,0.88575,12.387,74.0,11.17,47.03
-0.061,0.8365,12.381,74.0,11.17,47.01
-0.052,0.883125,12.381,74.0,11.17,46.93
-0.06,0.877875,12.389,74.0,11.16,46.87
-0.065,0.909,12.406,74.0,11.16,46.83
0.0,0.942625,12.433,74.0,11.16,46.82
-0.067,0.911625,12.474,74.0,11.16,46.81
0.209,0.927125,12.526,74.0,11.16,46.83
-0.042,0.978875,12.595,74.0,11.15,46.83
0.019,1.043625,12.675,74.0,11.15,46.81
0.194,1.03075,12.768,74.0,11.15,46.81
0.384,0.934875,12.872,74.0,11.15,46.83
0.001,0.94525,12.982,74.0,11.15,46.85
-0.045,0.922,13.097,73.0,11.15,46.83
-0.04,0.968625,13.211,73.0,11.15,46.81
-0.046,0.898625,13.329,73.0,11.13,46.77
-0.061,0.870125,13.443,73.0,11.13,46.76
-0.05,0.833875,13.544,73.0,11.13,46.77
-0.018,0.8935,13.635,73.0,11.13,46.79
-0.106,0.8935,13.713,73.0,11.13,46.78
0.194,0.927125,13.786,73.0,11.13,46.78
-0.038,0.903875,13.851,73.0,11.13,46.78
0.038,0.88825,13.91,73.0,11.12,46.79
0.301,0.927125,13.96,73.0,11.12,46.81
0.184,1.01525,14.003,73.0,11.12,46.81
-0.081,1.035875,14.041,73.0,11.12,46.8
-0.084,0.997125,14.075,73.0,11.12,46.8
-0.074,0.966,14.101,73.0,11.12,46.8
-0.081,0.927125,14.125,73.0,11.12,46.75
-0.09,0.940125,14.143,73.0,11.12,46.74
-0.043,0.991875,14.157,73.0,11.12,46.77
-0.074,0.865,14.164,73.0,11.11,46.8
-0.024,0.906375,14.17,73.0,11.11,46.81
0.113,0.877875,14.17,73.0,11.11,46.81
-0.025,0.9245,14.168,73.0,11.11,46.81
0.114,0.94525,14.163,73.0,11.11,46.82
0.374,0.911625,14.154,73.0,11.1,46.82
0.023,1.028125,14.142,73.0,11.1,46.82
-0.069,0.963375,14.128,73.0,11.1,46.81
-0.059,0.966,14.111,73.0,11.1,46.8
-0.053,1.023,14.091,73.0,11.1,46.8
-0.063,1.004875,14.069,73.0,11.1,46.75
-0.055,0.98675,14.044,73.0,11.1,46.75
-0.016,0.91675,14.015,73.0,11.1,46.75
-0.103,0.934875,13.985,73.0,11.1,46.75
0.192,0.978875,13.952,73.0,11.1,46.78
-0.032,0.883125,13.916,73.0,11.09,46.78
0.044,0.867625,13.879,73.0,11.09,46.77
0.299,0.854625,13.839,73.0,11.09,46.77
0.206,0.940125,13.798,73.0,11.09,46.8
-0.063,0.9375,13.756,75.0,11.09,46.81
-0.068,0.91425,13.711,75.0,11.09,46.82
-0.06,0.890875,13.666,75.0,11.07,46.79
-0.069,0.898625,13.621,75.0,11.07,46.76
-0.067,0.934875,13.579,75.0,11.07,46.74
-0.024,0.978875,13.534,75.0,11.07,46.76
-0.115,1.012625,13.491,75.0,11.07,46.76
0.171,1.023,13.449,75.0,11.07,46.79
-0.055,0.971125,13.405,75.0,11.07,46.81
0.016,0.922,13.364,75.0,11.07,46.79
0.265,0.9375,13.324,75.0,11.07,46.78
0.208,0.90125,13.286,75.0,11.07,46.8
-0.08,0.862375,13.248,77.0,11.07,46.81
-0.089,0.833875,13.211,77.0,11.07,46.82
-0.08,0.833875,13.174,77.0,11.07,46.8
-0.089,0.90125,13.139,77.0,11.07,46.76
-0.091,0.92975,13.107,77.0,11.06,46.75
-0.043,0.90125,13.073,77.0,11.06,46.74
-0.136,0.927125,13.041,77.0,11.06,46.73
0.144,0.8935,13.008,77.0,11.06,46.76
-0.084,0.875375,12.979,77.0,11.06,46.78
-0.01,1.020375,12.946,77.0,11.05,46.77
0.232,1.023,12.916,77.0,11.05,46.77
0.185,0.997125,12.887,77.0,11.05,46.79
-0.106,0.97375,12.857,77.0,11.05,46.8
-0.111,0.896125,12.829,77.0,11.05,46.8
-0.099,0.955625,12.801,77.0,11.05,46.76
-0.106,0.9505,12.774,77.0,11.05,46.74
-0.114,0.875375,12.746,77.0,11.05,46.73
-0.053,0.867625,12.721,77.0,11.05,46.73
-0.143,0.919375,12.697,77.0,11.05,46.72
0.149,0.92975,12.672,77.0,11.05,46.74
-0.12,0.922,12.647,77.0,11.05,46.76
-0.03,0.932375,12.622,77.0,11.05,46.78
0.185,0.947875,12.599,76.0,11.05,46.79
0.232,0.911625,12.575,76.0,11.04,46.8
-0.101,0.927125,12.552,76.0,11.04,46.82
-0.117,1.007375,12.53,76.0,11.04,46.83
-0.108,0.947875,12.509,76.0,11.04,46.83
-0.115,0.947875,12.487,76.0,11.04,46.87
-0.107,0.932375,12.467,76.0,11.04,46.95
-0.077,0.942625,12.447,76.0,11.04,47.02
-0.165,0.971125,12.427,76.0,11.02,47.12
0.123,0.91425,12.41,76.0,11.02,47.24
-0.093,0.821,12.391,76.0,11.02,47.37
-0.008,0.877875,12.372,76.0,11.02,47.51
0.252,0.898625,12.355,79.0,11.02,47.65
0.094,0.947875,12.338,79.0,11.02,47.86
-0.139,0.85975,12.321,79.0,11.02,48.08
-0.145,0.95825,12.306,79.0,11.02,48.26
-0.139,0.85975,12.291,79.0,11.02,48.4
-0.127,0.97375,12.276,79.0,11.02,48.54
-0.124,0.991875,12.263,79.0,11.02,48.66
-0.204,1.048875,12.25,79.0,11.02,48.8
0.091,0.978875,12.237,79.0,11.02,48.95
-0.116,0.9505,12.224,79.0,11.02,49.1
-0.012,0.909,12.213,79.0,11.02,49.23
0.263,0.976375,12.202,85.0,11.02,49.34
0.0,0.91425,12.189,85.0,11.02,49.5
-0.161,0.906375,12.178,85.0,11.02,49.66
-0.157,0.85725,12.167,85.0,11.02,49.82
-0.149,0.906375,12.156,85.0,11.02,49.92
-0.106,0.927125,12.146,85.0,11.02,50.01
-0.176,0.9245,12.136,85.0,11.01,50.16
0.1,0.9505,12.126,85.0,11.02,50.33
-0.171,0.96075,12.113,85.0,11.01,50.46
-0.08,0.94525,12.103,85.0,11.01,50.59
0.094,1.0255,12.094,87.0,11.01,50.74
0.265,1.048875,12.084,87.0,11.01,50.88
-0.11,1.012625,12.074,87.0,11.01,51.05
-0.156,1.01775,12.064,87.0,11.01,51.2
-0.143,0.942625,12.053,87.0,11.01,51.32
-0.107,0.97375,12.043,87.0,11.01,51.41
-0.128,0.963375,12.034,87.0,11.0,51.5
-0.176,0.877875,12.024,87.0,11.0,51.61
0.101,0.87275,12.015,87.0,11.0,51.72
-0.105,0.865,12.008,87.0,11.0,51.83
0.022,0.911625,12.005,87.0,11.0,51.97
0.293,0.903875,12.005,89.0,11.0,52.13
-0.045,0.90125,12.008,89.0,11.0,52.29
-0.167,0.909,12.014,89.0,11.0,52.49
-0.159,0.90125,12.025,89.0,11.0,52.73
-0.138,0.927125,12.043,89.0,11.0,52.96
-0.111,0.978875,12.065,89.0,11.0,53.11
-0.209,1.06175,12.091,89.0,11.0,53.29
0.112,0.971125,12.122,89.0,11.0,53.49
-0.128,0.94525,12.157,89.0,11.0,53.71
-0.027,0.909,12.196,89.0,11.0,54.24
0.266,0.966,12.236,91.0,11.0,54.69
0.023,0.8935,12.275,91.0,11.0,54.9
-0.178,0.91425,12.318,91.0,11.0,55.08
-0.177,0.906375,12.357,91.0,11.0,55.28
-0.163,0.88825,12.397,91.0,11.0,55.39
-0.103,0.8935,12.436,91.0,11.0,55.44
-0.194,0.8805,12.47,91.0,11.0,55.55
0.164,0.942625,12.505,91.0,11.0,55.71
-0.219,0.94525,12.535,91.0,11.0,55.83
-0.084,0.896125,12.56,91.0,10.99,55.91
0.127,0.966,12.584,88.0,10.99,56.03
0.257,1.020375,12.602,88.0,10.99,56.12
-0.141,0.98675,12.617,88.0,10.99,56.12
-0.174,0.91425,12.632,88.0,10.99,56.06
-0.16,0.909,12.643,88.0,10.99,55.96
-0.155,0.90125,12.65,88.0,10.99,55.84
-0.095,0.971125,12.657,88.0,10.98,55.76
-0.172,0.865,12.662,88.0,10.99,55.69
0.171,0.896125,12.666,88.0,10.99,55.62
-0.188,0.8495,12.669,88.0,10.98,55.45
0.11,0.91675,12.671,88.0,10.98,55.29
0.226,0.911625,12.673,88.0,10.98,55.07
0.299,0.934875,12.674,88.0,10.98,54.89
-0.099,0.9505,12.677,88.0,10.98,54.71
-0.133,0.94525,12.682,84.0,10.98,54.51
-0.117,0.971125,12.695,84.0,10.98,54.06
-0.111,0.978875,12.695,84.0,10.98,54.02
-0.113,1.04625,12.707,84.0,10.98,53.81
-0.049,0.999625,12.721,84.0,10.98,53.61
-0.144,0.966,12.738,84.0,10.98,53.36
0.197,0.934875,12.761,84.0,10.98,53.11
-0.104,0.934875,12.784,84.0,10.98,52.86
-0.004,0.8935,12.812,84.0,10.98,52.63
0.242,0.903875,12.842,84.0,10.98,52.4
0.27,0.875375,12.873,84.0,10.98,52.15
-0.072,0.90125,12.905,84.0,10.98,51.89
-0.085,0.922,12.938,79.0,10.98,51.6
-0.069,0.88575,12.969,79.0,10.98,51.3
-0.069,0.953,12.998,79.0,10.98,51.0
-0.075,0.947875,13.027,79.0,10.98,50.74
-0.024,0.896125,13.05,79.0,10.98,50.55
-0.062,0.947875,13.071,79.0,10.98,50.38
0.013,1.007375,13.089,79.0,10.98,50.21
0.144,0.98925,13.103,79.0,10.98,50.04
0.002,0.97375,13.115,79.0,10.98,49.88
0.149,0.906375,13.123,79.0,10.98,49.73
0.416,0.898625,13.128,79.0,10.98,49.61
0.051,0.91675,13.131,79.0,10.98,49.49
-0.04,0.919375,13.131,74.0,10.98,49.37
-0.032,0.852,13.127,74.0,10.98,49.23
-0.027,0.867625,13.122,74.0,10.98,49.1
-0.037,0.883125,13.117,74.0,10.98,48.97
0.004,0.92975,13.109,74.0,10.98,48.88
0.019,0.955625,13.1,74.0,10.98,48.78
-0.042,0.955625,13.093,74.0,10.96,48.68
0.163,0.9245,13.085,74.0,10.96,48.61
0.056,0.947875,13.078,74.0,10.96,48.52
0.029,0.95825,13.062,74.0,10.96,48.36
0.189,1.01,13.061,74.0,10.96,48.36
0.429,1.03075,13.055,74.0,10.96,48.29
0.047,1.01,13.047,74.0,10.96,48.22
-0.026,0.963375,13.042,72.0,10.96,48.12
-0.014,0.947875,13.035,72.0,10.96,48.03
-0.013,0.87275,13.03,72.0,10.96,47.9
-0.026,0.890875,13.023,72.0,10.96,47.79
-0.031,0.870125,13.017,72.0,10.96,47.69
0.021,0.85975,13.011,72.0,10.96,47.62
-0.013,0.922,13.002,72.0,10.96,47.54
0.05,0.911625,12.993,72.0,10.96,47.46
0.183,0.91425,12.982,72.0,10.96,47.35
0.031,0.9505,12.971,72.0,10.96,47.26
0.17,0.88575,12.958,72.0,10.96,47.21
0.444,0.984125,12.943,72.0,10.96,47.17
0.084,0.999625,12.927,72.0,10.96,47.12
-0.023,1.01775,12.908,70.0,10.96,47.07
-0.018,0.96075,12.889,70.0,10.95,47.01
-0.018,0.922,12.87,70.0,10.95,46.93
-0.033,0.919375,12.848,70.0,10.95,46.86
-0.039,0.890875,12.826,70.0,10.95,46.82
0.023,0.909,12.805,70.0,10.95,46.82
-0.064,0.896125,12.783,70.0,10.95,46.85
0.258,0.8805,12.759,70.0,10.95,46.93
-0.059,0.85975,12.736,70.0,10.95,46.9
0.036,0.911625,12.712,70.0,10.95,46.85
0.241,0.903875,12.687,70.0,10.95,46.83
0.352,0.978875,12.662,70.0,10.95,46.87
-0.018,0.896125,12.639,70.0,10.95,46.86
-0.047,0.934875,12.615,73.0,10.95,46.86
-0.04,0.999625,12.59,73.0,10.95,46.83
-0.045,1.01525,12.565,73.0,10.95,46.79
-0.055,0.96075,12.541,73.0,10.95,46.75
-0.012,0.955625,12.518,73.0,10.95,46.79
-0.056,0.8935,12.493,73.0,10.95,46.86
0.037,0.911625,12.47,73.0,10.95,46.95
0.077,0.942625,12.447,73.0,10.95,47.04
-0.018,0.91675,12.423,73.0,10.95,47.11
0.124,0.903875,12.401,73.0,10.95,47.22
0.381,0.877875,12.377,73.0,10.95,47.39
0.009,0.909,12.355,73.0,10.95,47.58
-0.089,0.9375,12.333,75.0,10.94,47.74
-0.086,0.922,12.31,75.0,10.95,47.9
-0.085,0.966,12.288,75.0,10.94,48.06
-0.05,0.934875,12.266,75.0,10.94,48.2
-0.102,0.984125,12.244,75.0,10.94,48.41
0.07,0.976375,12.223,75.0,10.94,48.6
-0.054,1.012625,12.203,75.0,10.94,48.82
-0.052,0.978875,12.183,75.0,10.94,49.02
0.101,0.942625,12.166,84.0,10.94,49.19
0.314,0.9375,12.15,84.0,10.94,49.33
-0.074,0.955625,12.136,84.0,10.94,49.5
-0.14,0.934875,12.126,84.0,10.94,49.67
-0.14,0.846875,12.117,84.0,10.94,49.79
-0.123,0.909,12.115,84.0,10.94,49.89
-0.107,0.90125,12.115,84.0,10.94,50.03
-0.205,0.911625,12.118,84.0,10.94,50.21
0.108,0.906375,12.126,84.0,10.94,50.41
-0.028,0.906375,12.136,84.0,10.93,50.62
0.034,0.877875,12.15,84.0,10.93,50.84
0.267,0.88825,12.162,89.0,10.93,51.04
0.016,1.023,12.18,89.0,10.93,51.23
-0.168,1.01525,12.194,89.0,10.94,51.42
-0.161,1.004875,12.225,89.0,10.94,51.72
-0.13,0.971125,12.228,89.0,10.93,51.74
-0.101,0.91675,12.24,89.0,10.93,51.82
-0.199,0.909,12.253,89.0,10.93,51.96
0.121,0.91425,12.265,89.0,10.93,51.92
-0.108,0.91675,12.273,89.0,10.93,51.73
-0.004,0.870125,12.279,89.0,10.93,51.46
0.288,0.85725,12.284,93.0,10.93,51.19
0.062,0.898625,12.286,93.0,10.93,50.92
-0.129,0.867625,12.288,93.0,10.93,50.69
-0.124,0.883125,12.286,93.0,10.93,50.46
-0.11,0.934875,12.285,93.0,10.93,50.17
-0.058,0.919375,12.281,93.0,10.93,49.91
-0.102,0.932375,12.276,93.0,10.93,49.66
-0.006,0.976375,12.272,93.0,10.93,49.49
0.054,1.007375,12.267,93.0,10.93,49.52
-0.041,1.00225,12.26,93.0,10.93,49.44
0.117,0.909,12.253,87.0,10.93,49.26
0.368,0.909,12.245,87.0,10.93,49.05
-0.008,0.953,12.238,87.0,10.93,48.9
-0.077,0.919375,12.232,87.0,10.93,48.75
-0.065,0.91675,12.224,87.0,10.93,48.6
-0.06,0.87275,12.217,87.0,10.93,48.39
-0.055,0.84425,12.212,87.0,10.93,48.19
-0.004,0.896125,12.207,87.0,10.93,48.0
-0.105,0.909,12.204,87.0,10.93,47.85
0.204,0.978875,12.203,87.0,10.93,47.75
-0.039,0.922,12.203,87.0,10.93,47.65
0.038,0.932375,12.207,87.0,10.93,47.53
0.302,0.991875,12.215,87.0,10.93,47.42
0.239,1.00225,12.227,87.0,10.93,47.3
-0.051,1.0515,12.246,80.0,10.93,47.23
-0.056,0.96075,12.268,80.0,10.93,47.17
-0.049,0.963375,12.297,80.0,10.93,47.04
-0.052,0.947875,12.333,80.0,10.93,46.9
-0.062,0.909,12.372,80.0,10.93,46.82
-0.001,0.922,12.416,80.0,10.93,46.77
-0.065,0.90125,12.463,80.0,10.93,46.74
0.191,0.896125,12.511,80.0,10.93,46.72
-0.055,0.92975,12.561,80.0,10.93,46.67
-0.004,0.87275,12.611,80.0,10.93,46.57
0.166,0.919375,12.657,80.0,10.93,46.4
0.368,0.963375,12.704,80.0,10.93,46.32
-0.015,0.88825,12.744,80.0,10.93,46.31
-0.066,0.95825,12.781,75.0,10.93,46.3
-0.062,0.991875,12.814,75.0,10.93,46.33
-0.061,1.048875,12.842,75.0,10.93,46.31
-0.066,0.997125,12.866,75.0,10.93,46.29
-0.053,0.9245,12.887,75.0,10.93,46.27
-0.003,0.8805,12.903,75.0,10.93,46.28
-0.095,0.85725,12.914,75.0,10.93,46.32
0.199,0.903875,12.924,75.0,10.93,46.38
-0.03,0.966,12.929,75.0,10.93,46.39
0.047,0.88825,12.932,75.0,10.93,46.4
0.31,0.826125,12.93,75.0,10.93,46.39
0.224,0.898625,12.927,75.0,10.93,46.38
-0.052,0.922,12.92,73.0,10.93,46.38
-0.056,0.911625,12.911,73.0,10.93,46.39
-0.051,0.9245,12.901,73.0,10.91,46.37
-0.057,0.9375,12.89,73.0,10.93,46.34
-0.066,0.940125,12.876,73.0,10.93,46.31
-0.028,0.999625,12.861,73.0,10.93,46.3
-0.041,0.997125,12.842,73.0,10.93,46.32
-0.061,0.96075,12.825,73.0,10.93,46.33
0.177,0.984125,12.805,73.0,10.93,46.37
-0.021,0.953,12.783,73.0,10.93,46.49
0.099,0.8935,12.761,73.0,10.93,46.61
0.379,0.922,12.736,73.0,10.93,46.74
0.055,0.88575,12.714,73.0,10.91,46.87
-0.078,0.84425,12.687,73.0,10.93,47.01
-0.076,0.88825,12.66,73.0,10.91,47.14
-0.076,0.922,12.633,73.0,10.91,47.27
-0.09,0.95825,12.606,73.0,10.91,47.41
-0.059,0.8935,12.576,73.0,10.93,47.57
-0.081,0.903875,12.548,73.0,10.91,47.75
-0.061,0.9815,12.519,73.0,10.91,47.98
0.092,0.978875,12.49,73.0,10.91,48.17
-0.053,1.020375,12.461,73.0,10.91,48.36
0.075,0.971125,12.432,73.0,10.91,48.53
0.332,0.955625,12.403,77.0,10.91,48.74
-0.06,0.883125,12.374,77.0,10.91,48.96
-0.121,0.852,12.346,77.0,10.91,49.18
-0.112,0.927125,12.317,77.0,10.91,49.36
-0.117,0.95825,12.287,77.0,10.91,49.48
-0.09,0.90125,12.262,77.0,10.91,49.6
-0.117,0.8365,12.209,77.0,10.91,49.94
-0.123,0.88825,12.208,77.0,10.9,49.96
0.082,0.883125,12.182,77.0,10.91,50.16
-0.087,0.966,12.157,77.0,10.91,50.35
0.042,0.909,12.132,77.0,10.91,50.52
0.303,0.963375,12.109,84.0,10.91,50.7
-0.044,0.997125,12.087,84.0,10.9,50.91
-0.155,0.971125,12.064,84.0,10.91,51.07
-0.148,1.007375,12.042,84.0,10.91,51.25
-0.138,0.94525,12.019,84.0,10.9,51.34
-0.088,0.953,12.0,84.0,10.9,51.45
-0.189,0.922,11.978,84.0,10.9,51.59
0.112,0.97375,11.96,84.0,10.9,51.72
-0.145,0.953,11.94,84.0,10.9,51.83
-0.047,0.92975,11.92,84.0,10.9,51.94
0.199,0.867625,11.903,88.0,10.9,52.07
0.164,0.883125,11.884,88.0,10.9,52.12
-0.139,0.903875,11.866,88.0,10.9,52.2
-0.146,0.898625,11.849,88.0,10.9,52.28
-0.132,0.94525,11.833,88.0,10.9,52.27
-0.073,0.903875,11.816,88.0,10.9,52.16
-0.144,0.95825,11.8,88.0,10.9,52.03
0.106,1.01,11.784,88.0,10.9,51.88
-0.111,1.04625,11.769,88.0,10.9,51.7
-0.062,1.007375,11.754,88.0,10.9,51.47
0.115,0.98925,11.74,88.0,10.9,51.24
0.312,0.919375,11.725,88.0,10.9,50.99
-0.074,0.919375,11.711,88.0,10.9,50.74
-0.119,0.94525,11.697,90.0,10.9,50.51
-0.105,0.940125,11.683,90.0,10.9,50.26
-0.104,0.846875,11.67,90.0,10.9,49.96
-0.04,0.88825,11.658,90.0,10.9,49.66
-0.12,0.896125,11.649,90.0,10.9,49.46
0.205,0.906375,11.639,90.0,10.9,49.32
-0.128,0.940125,11.629,90.0,10.9,49.17
-0.022,0.91675,11.623,90.0,10.9,49.05
0.172,0.934875,11.618,90.0,10.9,48.91
0.328,0.942625,11.615,90.0,10.9,48.79
-0.052,1.033375,11.615,90.0,10.9,48.7
-0.082,1.007375,11.618,84.0,10.9,48.61
-0.069,0.9505,11.624,84.0,10.9,48.48
-0.067,0.9945,11.636,84.0,10.9,48.33
-0.066,0.953,11.651,84.0,10.9,48.2
-0.002,0.911625,11.672,84.0,10.9,48.13
-0.099,0.971125,11.698,84.0,10.9,48.05
0.213,0.87275,11.728,84.0,10.9,47.92
-0.046,0.890875,11.762,84.0,10.9,47.8
0.032,0.898625,11.798,84.0,10.9,47.67
0.277,0.91425,11.838,84.0,10.9,47.57
0.271,0.909,11.879,84.0,10.9,47.5
-0.048,0.927125,11.921,84.0,10.9,47.43
-0.058,0.90125,11.965,79.0,10.9,47.34
-0.049,0.91425,12.004,79.0,10.9,47.22
-0.056,0.968625,12.044,79.0,10.9,47.1
-0.059,1.01775,12.08,79.0,10.9,47.02
0.008,0.934875,12.115,79.0,10.9,47.02
-0.09,0.934875,12.146,79.0,10.9,46.96
0.206,0.966,12.175,79.0,10.9,46.89
-0.052,0.898625,12.198,79.0,10.9,46.83
0.029,0.978875,12.218,79.0,10.9,46.79
0.26,0.96075,12.234,79.0,10.9,46.73
0.071,0.883125,12.249,79.0,10.9,46.7
-0.052,0.867625,12.262,77.0,10.9,46.69
-0.055,0.911625,12.269,77.0,10.9,46.67
-0.049,0.932375,12.274,77.0,10.9,46.64
-0.054,0.932375,12.276,77.0,10.9,46.58
-0.063,0.896125,12.276,77.0,10.9,46.49
0.004,0.96075,12.275,77.0,10.9,46.48
-0.081,1.020375,12.274,77.0,10.9,46.47
0.225,0.98675,12.269,77.0,10.9,46.47
-0.093,1.05925,12.262,77.0,10.9,46.48
0.009,0.97375,12.253,77.0,10.9,46.48
0.209,0.947875,12.243,77.0,10.9,46.47
0.328,0.91675,12.233,77.0,10.9,46.5
-0.038,0.91425,12.222,77.0,10.9,46.56
-0.067,0.9505,12.21,76.0,10.9,46.6
-0.06,0.919375,12.197,76.0,10.9,46.59
-0.064,0.906375,12.182,76.0,10.9,46.55
-0.075,0.87275,12.167,76.0,10.9,46.53
-0.034,0.898625,12.152,76.0,10.9,46.54
-0.057,0.922,12.136,76.0,10.9,46.57
-0.041,0.90125,12.119,76.0,10.9,46.56
0.127,0.942625,12.101,76.0,10.9,46.59
-0.026,0.971125,12.083,76.0,10.9,46.58
0.102,0.98675,12.062,76.0,10.9,46.58
0.372,1.028125,12.044,76.0,10.9,46.62
0.03,1.0385,12.023,76.0,10.9,46.7
-0.084,0.919375,12.002,75.0,10.9,46.78
-0.08,0.953,11.981,75.0,10.9,46.83
-0.079,0.909,11.96,75.0,10.9,46.88
-0.093,0.91675,11.94,75.0,10.9,46.92
-0.06,0.963375,11.919,75.0,10.9,47.03
-0.082,0.852,11.898,75.0,10.9,47.17
-0.066,0.85975,11.878,75.0,10.9,47.33
0.087,0.877875,11.858,75.0,10.9,47.5
-0.059,0.877875,11.84,75.0,10.9,47.66
0.065,0.8935,11.822,75.0,10.9,47.81
0.328,0.8935,11.804,77.0,10.9,47.97
-0.007,0.91675,11.788,77.0,10.9,48.16
-0.121,0.978875,11.772,77.0,10.9,48.34
-0.118,0.999625,11.757,77.0,10.9,48.5
-0.116,1.007375,11.742,77.0,10.89,48.61
-0.107,0.976375,11.727,77.0,10.89,48.72
-0.088,0.978875,11.715,77.0,10.89,48.85
-0.176,0.932375,11.703,77.0,10.89,49.0
0.125,0.903875,11.693,77.0,10.89,49.17
-0.092,0.942625,11.681,77.0,10.89,49.34
0.006,0.92975,11.673,77.0,10.89,49.5
0.284,0.922,11.665,82.0,10.89,49.64
0.056,0.875375,11.656,82.0,10.89,49.78
-0.134,0.865,11.65,82.0,10.89,49.93
-0.131,0.978875,11.643,82.0,10.89,50.08
-0.128,0.97375,11.636,82.0,10.89,50.17
-0.091,0.9245,11.629,82.0,10.89,50.24
-0.124,0.98925,11.623,82.0,10.89,50.33
-0.101,0.98925,11.615,82.0,10.89,50.42
0.065,1.01525,11.609,82.0,10.89,50.48
-0.083,0.9815,11.6,82.0,10.89,50.54
0.05,0.98675,11.594,82.0,10.89,50.61
0.312,0.98675,11.585,86.0,10.89,50.67
-0.043,0.927125,11.576,86.0,10.89,50.77
-0.144,0.9375,11.569,86.0,10.89,50.88
-0.133,0.906375,11.559,86.0,10.89,50.99
-0.118,0.903875,11.551,86.0,10.89,51.03
-0.078,0.906375,11.542,86.0,10.89,51.05
-0.171,0.846875,11.532,86.0,10.89,51.12
0.13,0.927125,11.522,86.0,10.89,51.21
-0.107,0.927125,11.512,86.0,10.89,51.24
-0.015,0.91675,11.502,86.0,10.89,51.29
0.24,0.903875,11.494,86.0,10.89,51.33
0.169,0.94525,11.482,86.0,10.89,51.3
-0.114,0.963375,11.472,89.0,10.89,51.26
-0.118,0.9815,11.462,89.0,10.89,51.2
-0.103,0.932375,11.454,89.0,10.89,51.04
-0.069,0.919375,11.445,89.0,10.89,50.86
-0.083,0.940125,11.436,89.0,10.89,50.72
-0.132,0.922,11.429,89.0,10.89,50.56
0.172,0.94525,11.424,89.0,10.89,50.38
-0.05,0.922,11.419,89.0,10.89,50.18
0.078,0.862375,11.416,89.0,10.89,49.99
0.368,0.841625,11.415,89.0,10.89,49.79
0.049,0.85725,11.415,89.0,10.89,49.6
-0.082,0.903875,11.419,86.0,10.89,49.45
-0.075,0.909,11.424,86.0,10.89,49.31
-0.063,0.898625,11.43,86.0,10.89,49.11
-0.058,0.9505,11.437,86.0,10.89,48.92
-0.003,0.98675,11.449,86.0,10.89,48.77
-0.1,1.012625,11.461,86.0,10.89,48.64
0.213,1.035875,11.475,86.0,10.89,48.5
-0.032,0.9505,11.488,86.0,10.89,48.39
0.047,1.01525,11.503,86.0,10.89,48.28
0.31,0.909,11.518,86.0,10.89,48.16
0.262,0.968625,11.535,86.0,10.89,48.05
-0.04,0.91425,11.551,82.0,10.89,47.94
-0.046,0.91675,11.567,82.0,10.89,47.83
-0.037,0.854625,11.583,82.0,10.89,47.66
-0.042,0.88575,11.598,82.0,10.89,47.51
-0.025,0.91675,11.613,82.0,10.89,47.39
0.0,0.94525,11.625,82.0,10.89,47.28
-0.093,0.92975,11.639,82.0,10.89,47.2
0.231,0.966,11.649,82.0,10.89,47.14
-0.012,0.922,11.657,82.0,10.89,47.05
0.083,1.04625,11.665,82.0,10.89,46.95
0.37,1.007375,11.67,82.0,10.89,46.86
0.17,0.968625,11.674,82.0,10.89,46.83
-0.047,0.942625,11.676,78.0,10.89,46.83
-0.047,0.971125,11.676,78.0,10.89,46.82
-0.042,0.890875,11.676,78.0,10.89,46.73
-0.054,0.97375,11.675,78.0,10.89,46.66
-0.025,0.94525,11.671,78.0,10.89,46.64
-0.024,0.903875,11.667,78.0,10.89,46.61
0.071,0.896125,11.662,78.0,10.89,46.63
0.084,0.922,11.657,78.0,10.89,46.65
-0.021,0.927125,11.655,78.0,10.89,46.63
0.083,0.896125,11.65,84.0,10.89,46.6
0.371,0.919375,11.647,84.0,10.89,46.6
0.105,0.88575,11.641,84.0,10.89,46.62
-0.064,0.953,11.64,84.0,10.89,46.62
-0.058,0.98925,11.638,84.0,10.89,46.61
-0.055,0.9945,11.637,84.0,10.89,46.55
-0.069,0.98925,11.637,84.0,10.89,46.53
-0.028,0.955625,11.635,84.0,10.89,46.53
-0.061,0.896125,11.634,84.0,10.89,46.53
-0.046,0.940125,11.634,84.0,10.89,46.53
0.14,0.9945,11.634,84.0,10.89,46.57
-0.025,0.932375,11.634,84.0,10.89,46.58
0.104,0.88575,11.632,84.0,10.89,46.55
0.379,0.852,11.629,84.0,10.89,46.55
0.036,0.88825,11.627,84.0,10.89,46.59
-0.073,0.9245,11.623,111.0,10.89,46.62
-0.067,0.95825,11.62,111.0,10.89,46.62
-0.063,0.942625,11.615,111.0,10.89,46.59
-0.073,0.966,11.61,111.0,10.89,46.56
-0.005,1.00225,11.604,111.0,10.89,46.56
-0.089,1.0385,11.596,111.0,10.89,46.54
0.21,1.007375,11.589,111.0,10.89,46.54
-0.103,0.9945,11.579,111.0,10.89,46.58
0.0,0.932375,11.571,111.0,10.89,46.56
0.184,0.8935,11.562,111.0,10.89,46.54
0.332,0.976375,11.552,111.0,10.89,46.54
-0.041,0.95825,11.539,111.0,10.89,46.55
-0.079,0.91425,11.529,80.0,10.89,46.56
-0.07,0.854625,11.518,80.0,10.89,46.55
-0.076,0.903875,11.507,80.0,10.89,46.52
-0.068,0.883125,11.494,80.0,10.89,46.5
-0.027,0.942625,11.483,80.0,10.89,46.49
-0.121,0.922,11.471,80.0,10.89,46.48
0.161,0.909,11.46,80.0,10.89,46.47
-0.052,0.9815,11.447,80.0,10.89,46.49
0.024,1.023,11.435,80.0,10.89,46.48
0.273,0.98675,11.422,80.0,10.89,46.47
0.203,0.968625,11.41,80.0,10.89,46.47
-0.077,0.96075,11.397,79.0,10.89,46.47
-0.083,0.94525,11.385,79.0,10.89,46.46
-0.075,0.955625,11.373,79.0,10.89,46.44
-0.084,0.942625,11.362,79.0,10.89,46.47
-0.048,0.90125,11.35,79.0,10.89,46.48
-0.065,0.8365,11.34,79.0,10.89,46.49
-0.103,0.85975,11.332,79.0,10.89,46.43
0.151,0.94525,11.324,79.0,10.89,46.42
-0.042,0.898625,11.317,79.0,10.89,46.44
0.078,0.927125,11.312,79.0,10.89,46.49
0.352,0.927125,11.309,79.0,10.89,46.56
0.046,0.9505,11.308,79.0,10.89,46.62
-0.089,0.9815,11.308,80.0,10.89,46.7
-0.085,0.984125,11.312,80.0,10.89,46.78
-0.085,0.991875,11.317,80.0,10.89,46.82
-0.076,0.95825,11.323,80.0,10.89,46.91
-0.062,0.932375,11.33,80.0,10.89,47.06
-0.149,0.906375,11.342,80.0,10.89,47.22
0.143,0.971125,11.353,80.0,10.89,47.4
-0.068,0.9505,11.367,80.0,10.89,47.55
0.028,0.898625,11.379,80.0,10.89,47.7
0.295,0.867625,11.391,83.0,10.89,47.87
0.064,0.909,11.404,83.0,10.88,48.08
-0.118,0.92975,11.415,83.0,10.88,48.29
-0.11,0.903875,11.425,83.0,10.88,48.48
-0.109,0.940125,11.434,83.0,10.88,48.61
-0.063,0.963375,11.441,83.0,10.88,48.74
-0.132,0.999625,11.449,83.0,10.88,48.91
0.092,1.004875,11.454,83.0,10.88,49.09
-0.109,1.004875,11.456,83.0,10.88,49.25
-0.059,1.01,11.459,83.0,10.88,49.41
0.103,0.963375,11.46,87.0,10.88,49.58
0.291,0.932375,11.46,87.0,10.88,49.75
-0.077,0.927125,11.458,87.0,10.88,49.92
-0.131,0.953,11.455,87.0,10.88,50.12
-0.12,0.976375,11.451,87.0,10.88,50.31
-0.081,0.854625,11.446,87.0,10.88,50.45
-0.129,0.818375,11.44,87.0,10.88,50.57
-0.089,0.896125,11.434,87.0,10.88,50.7
0.044,0.947875,11.426,87.0,10.88,50.85
-0.076,0.90125,11.419,87.0,10.88,50.95
0.063,0.96075,11.41,87.0,10.89,51.08
0.306,0.984125,11.4,90.0,10.89,51.23
-0.061,0.966,11.393,90.0,10.89,51.37
-0.147,0.966,11.383,90.0,10.89,51.51
-0.13,0.98925,11.37,90.0,10.89,51.67
-0.079,0.997125,11.36,90.0,10.89,51.78
-0.134,0.92975,11.35,90.0,10.88,51.89
-0.042,0.911625,11.34,90.0,10.88,52.0
0.013,0.9505,11.33,90.0,10.88,52.09
-0.071,0.968625,11.322,90.0,10.89,52.02
0.087,0.88825,11.313,94.0,10.89,51.94
0.323,0.82875,11.305,94.0,10.88,51.89
-0.06,0.8495,11.298,94.0,10.89,51.75
-0.127,0.91425,11.292,94.0,10.88,51.6
-0.113,0.883125,11.287,94.0,10.89,51.45
-0.068,0.9245,11.286,94.0,10.89,51.26
-0.082,0.940125,11.286,94.0,10.89,51.06
-0.14,0.976375,11.291,94.0,10.89,50.87
0.16,0.9945,11.301,94.0,10.89,50.69
-0.057,0.968625,11.316,94.0,10.89,50.48
0.071,0.997125,11.339,94.0,10.89,50.29
0.358,0.9245,11.368,94.0,10.89,50.13
0.029,0.9245,11.406,94.0,10.89,49.94
-0.099,0.8935,11.452,90.0,10.89,49.79
-0.089,0.991875,11.506,90.0,10.89,49.66
-0.08,0.8935,11.564,90.0,10.89,49.46
-0.022,0.852,11.629,90.0,10.89,49.27
-0.09,0.865,11.696,90.0,10.89,49.13
0.148,0.85725,11.765,90.0,10.9,49.03
-0.039,0.976375,11.835,90.0,10.89,48.93
-0.012,0.875375,11.904,90.0,10.89,48.79
0.158,0.898625,11.968,90.0,10.89,48.63
0.358,0.976375,12.029,90.0,10.89,48.46
-0.028,0.9815,12.085,90.0,10.89,48.4
-0.078,0.999625,12.133,86.0,10.89,48.33
-0.065,1.012625,12.178,86.0,10.89,48.15
-0.064,0.98925,12.218,86.0,10.89,47.92
-0.046,0.971125,12.253,86.0,10.89,47.8
-0.024,0.92975,12.28,86.0,10.89,47.7
-0.116,0.919375,12.303,86.0,10.89,47.57
0.201,0.97375,12.321,86.0,10.89,47.43
-0.035,0.865,12.335,86.0,10.89,47.3
0.053,0.8495,12.346,86.0,10.89,47.22
0.33,0.85975,12.354,86.0,10.88,47.15
0.027,0.890875,12.358,86.0,10.89,47.08
-0.082,0.877875,12.356,81.0,10.88,47.01
-0.075,0.984125,12.354,81.0,10.88,46.95
-0.068,0.91675,12.349,81.0,10.88,46.84
-0.077,0.922,12.339,81.0,10.88,46.73
-0.048,1.01525,12.317,81.0,10.88,46.67
-0.043,0.984125,12.317,81.0,10.89,46.67
-0.121,1.0385,12.304,81.0,10.88,46.69
0.202,0.9245,12.288,81.0,10.89,46.7
-0.039,0.9815,12.269,81.0,10.89,46.66
0.065,0.883125,12.251,81.0,10.88,46.62
0.35,0.947875,12.228,81.0,10.88,46.61
0.097,0.906375,12.207,81.0,10.88,46.66
-0.082,0.865,12.183,78.0,10.88,46.7
-0.076,0.862375,12.158,78.0,10.88,46.71
-0.072,0.90125,12.132,78.0,10.88,46.66
-0.083,0.95825,12.105,78.0,10.88,46.62
-0.039,0.890875,12.078,78.0,10.88,46.61
-0.063,0.919375,12.049,78.0,10.89,46.63
-0.092,0.903875,12.019,78.0,10.89,46.64
0.159,1.00225,11.987,78.0,10.89,46.66
-0.04,0.942625,11.956,78.0,10.88,46.65
0.082,1.0385,11.923,78.0,10.89,46.64
0.357,0.922,11.89,78.0,10.89,46.64
0.039,0.9945,11.857,78.0,10.89,46.68
-0.087,0.95825,11.824,78.0,10.89,46.69
-0.082,0.94525,11.792,78.0,10.89,46.69
-0.076,0.955625,11.759,78.0,10.88,46.67
-0.087,0.932375,11.726,78.0,10.88,46.64
-0.054,0.865,11.693,78.0,10.88,46.64
-0.061,0.927125,11.661,78.0,10.88,46.61
-0.117,0.8805,11.63,78.0,10.88,46.6
0.171,0.94525,11.599,78.0,10.88,46.63
-0.047,0.9505,11.571,78.0,10.88,46.66
0.068,0.963375,11.543,78.0,10.88,46.66
0.343,0.92975,11.518,78.0,10.88,46.64
0.06,0.963375,11.495,78.0,10.88,46.63
-0.084,0.968625,11.475,76.0,10.88,46.62
-0.076,1.0385,11.459,76.0,10.88,46.64
-0.071,0.955625,11.445,76.0,10.88,46.63
-0.079,0.9505,11.437,76.0,10.88,46.66
-0.046,0.9505,11.433,76.0,10.89,46.65
-0.037,0.966,11.431,76.0,10.88,46.64
-0.109,0.94525,11.434,76.0,10.88,46.6
0.201,0.867625,11.439,76.0,10.89,46.62
-0.023,0.846875,11.447,76.0,10.89,46.64
0.083,0.906375,11.457,76.0,10.89,46.67
0.36,0.88825,11.469,76.0,10.89,46.74
0.105,0.88575,11.48,76.0,10.89,46.77
-0.066,0.91425,11.492,77.0,10.89,46.8
-0.068,0.890875,11.502,77.0,10.89,46.8
-0.063,0.963375,11.514,77.0,10.89,46.79
-0.077,0.940125,11.524,77.0,10.89,46.86
-0.022,0.999625,11.533,77.0,10.89,47.0
-0.093,0.97375,11.541,77.0,10.89,47.13
0.184,0.978875,11.548,77.0,10.89,47.27
-0.115,0.997125,11.553,77.0,10.89,47.47
-0.017,0.95825,11.561,77.0,10.89,47.67
0.153,0.940125,11.566,77.0,10.89,47.84
0.322,0.870125,11.57,77.0,10.89,48.0
-0.045,0.846875,11.575,77.0,10.89,48.19
-0.089,0.890875,11.58,80.0,10.89,48.37
-0.079,0.875375,11.585,80.0,10.89,48.52
-0.085,0.88575,11.589,80.0,10.89,48.63
-0.031,0.91675,11.593,80.0,10.89,48.75
-0.12,0.940125,11.597,80.0,10.89,48.91
0.178,0.98675,11.598,80.0,10.89,49.1
-0.124,1.041125,11.599,80.0,10.89,49.27
-0.006,0.968625,11.599,80.0,10.89,49.43
0.191,1.01,11.599,80.0,10.89,49.58
0.271,1.00225,11.597,80.0,10.89,49.71
-0.074,0.955625,11.593,80.0,10.89,49.86
-0.097,0.91425,11.59,85.0,10.89,50.04
-0.091,0.95825,11.583,85.0,10.89,50.2
-0.073,0.953,11.576,85.0,10.89,50.32
-0.076,0.8935,11.568,85.0,10.89,50.44
-0.152,0.84425,11.559,85.0,10.89,50.59
0.154,0.870125,11.549,85.0,10.89,50.73
-0.063,0.877875,11.537,85.0,10.89,50.83
0.048,0.932375,11.526,85.0,10.89,50.95
0.32,0.942625,11.513,88.0,10.89,51.06
0.036,0.922,11.498,88.0,10.89,51.18
-0.119,0.966,11.481,88.0,10.89,51.33
-0.113,1.012625,11.466,88.0,10.89,51.48
-0.095,1.00225,11.45,88.0,10.89,51.54
-0.065,1.0255,11.433,88.0,10.89,51.6
-0.158,0.906375,11.415,88.0,10.89,51.68
0.145,0.896125,11.398,88.0,10.89,51.78
-0.076,0.953,11.379,88.0,10.89,51.84
0.02,1.007375,11.361,88.0,10.89,51.84
0.293,0.9505,11.343,88.0,10.89,51.79
0.106,0.867625,11.324,88.0,10.89,51.66
-0.111,0.833875,11.306,91.0,10.89,51.54
-0.107,0.927125,11.289,91.0,10.89,51.45
-0.089,0.8805,11.271,91.0,10.89,51.28
-0.036,0.927125,11.255,91.0,10.89,51.08
-0.14,0.98925,11.242,91.0,10.89,50.93
0.164,0.890875,11.228,91.0,10.89,50.75
-0.094,0.984125,11.218,91.0,10.89,50.55
0.0,1.00225,11.21,91.0,10.89,50.39
0.246,1.04625,11.204,91.0,10.89,50.26
0.21,0.95825,11.2,91.0,10.89,50.09
-0.095,0.94525,11.199,90.0,10.89,49.92
-0.103,0.963375,11.199,90.0,10.89,49.75
-0.089,0.999625,11.203,90.0,10.89,49.55
-0.052,0.947875,11.208,90.0,10.89,49.32
-0.063,0.922,11.216,90.0,10.89,49.09
-0.125,0.88825,11.225,90.0,10.89,48.91
0.187,0.966,11.236,90.0,10.89,48.78
-0.046,0.934875,11.248,90.0,10.89,48.64
0.078,0.903875,11.261,90.0,10.89,48.51
0.364,0.94525,11.275,90.0,10.89,48.38
0.043,0.955625,11.287,90.0,10.89,48.24
-0.085,0.9375,11.298,87.0,10.89,48.15
-0.077,0.932375,11.31,87.0,10.89,48.05
-0.071,0.98675,11.32,87.0,10.89,47.89
-0.043,0.999625,11.333,87.0,10.89,47.74
-0.04,0.98675,11.342,87.0,10.89,47.61
-0.121,0.955625,11.35,87.0,10.89,47.5
0.204,0.942625,11.359,87.0,10.89,47.4
-0.036,0.997125,11.368,87.0,10.89,47.33
0.073,0.9505,11.375,87.0,10.89,47.25
0.364,0.821,11.385,87.0,10.89,47.16
0.079,0.890875,11.393,87.0,10.89,47.09
-0.083,0.90125,11.402,84.0,10.89,47.03
-0.078,0.963375,11.415,84.0,10.89,46.97
-0.077,0.934875,11.427,84.0,10.89,46.87
-0.089,0.963375,11.44,84.0,10.89,46.79
-0.035,0.9245,11.455,84.0,10.89,46.75
-0.084,0.971125,11.471,84.0,10.89,46.73
0.018,1.064375,11.487,84.0,10.89,46.72
0.04,1.08775,11.503,84.0,10.89,46.71
-0.039,0.984125,11.522,84.0,10.89,46.7
0.107,0.94525,11.541,84.0,10.89,46.7
0.35,0.942625,11.56,84.0,10.89,46.71
-0.022,0.978875,11.577,84.0,10.89,46.71
-0.098,0.903875,11.595,79.0,10.89,46.7
-0.089,0.867625,11.612,79.0,10.89,46.7
-0.089,0.839125,11.628,79.0,10.89,46.66
-0.101,0.896125,11.643,79.0,10.89,46.64
-0.062,0.903875,11.654,79.0,10.89,46.64
-0.072,0.94525,11.667,79.0,10.89,46.65
-0.124,0.927125,11.677,79.0,10.89,46.65
0.162,0.976375,11.682,79.0,10.89,46.66
-0.056,0.942625,11.686,79.0,10.89,46.65
0.059,0.98925,11.689,79.0,10.89,46.64
0.337,1.020375,11.686,79.0,10.89,46.65
0.04,0.997125,11.685,79.0,10.89,46.68
-0.102,0.966,11.68,75.0,10.89,46.67
-0.096,0.890875,11.672,75.0,10.9,46.67
-0.091,0.98675,11.663,75.0,10.9,46.64
-0.101,0.98675,11.654,75.0,10.9,46.61
-0.087,0.91675,11.644,75.0,10.9,46.6
-0.046,0.927125,11.633,75.0,10.89,46.6
-0.134,0.890875,11.619,75.0,10.89,46.62
0.154,0.896125,11.605,75.0,10.9,46.64
-0.065,0.906375,11.59,75.0,10.9,46.65
0.011,0.94525,11.575,75.0,10.9,46.63
0.261,0.95825,11.56,75.0,10.9,46.64
0.19,0.896125,11.542,75.0,10.89,46.65
-0.092,0.963375,11.526,75.0,10.89,46.66
-0.095,0.963375,11.507,75.0,10.9,46.65
-0.084,1.0255,11.49,75.0,10.89,46.64
-0.092,0.98675,11.471,75.0,10.89,46.61
-0.095,0.940125,11.453,75.0,10.9,46.59
-0.037,0.8935,11.433,75.0,10.89,46.59
-0.096,0.997125,11.414,75.0,10.9,46.6
0.139,0.968625,11.394,75.0,10.89,46.61
-0.075,0.90125,11.376,75.0,10.89,46.63
-0.021,0.810625,11.356,75.0,10.88,46.65
0.139,0.90125,11.334,75.0,10.88,46.64
0.342,0.9245,11.313,75.0,10.88,46.64
-0.03,0.92975,11.294,75.0,10.88,46.63
-0.087,0.932375,11.274,75.0,10.88,46.64
-0.074,0.934875,11.251,75.0,10.88,46.63
-0.079,0.95825,11.231,75.0,10.88,46.61
-0.091,0.978875,11.211,75.0,10.88,46.6
-0.053,1.007375,11.192,75.0,10.88,46.65
-0.067,1.033375,11.173,75.0,10.88,46.68
-0.085,0.940125,11.154,75.0,10.88,46.64
0.147,0.971125,11.134,75.0,10.88,46.65
-0.033,0.963375,11.115,75.0,10.88,46.68
0.087,0.953,11.095,75.0,10.88,46.71
0.353,0.942625,11.077,75.0,10.88,46.71
0.043,0.854625,11.057,75.0,10.88,46.71
-0.08,0.821,11.04,75.0,10.88,46.7
-0.071,0.88825,11.021,75.0,10.88,46.71
-0.071,0.88825,11.004,75.0,10.88,46.68
-0.085,0.98925,10.986,75.0,10.88,46.63
-0.053,0.999625,10.97,75.0,10.88,46.62
-0.057,0.91675,10.954,75.0,10.88,46.63
-0.102,0.8935,10.939,75.0,10.88,46.64
0.164,0.968625,10.924,75.0,10.88,46.67
-0.037,1.0385,10.909,75.0,10.88,46.66
0.078,0.96075,10.894,75.0,10.89,46.64
0.351,0.984125,10.879,75.0,10.89,46.64
0.055,0.96075,10.865,75.0,10.89,46.65
-0.085,0.9505,10.852,77.0,10.89,46.69
-0.079,0.96075,10.84,77.0,10.89,46.69
-0.076,0.870125,10.826,77.0,10.89,46.68
-0.091,0.85975,10.813,77.0,10.9,46.65
-0.049,0.9245,10.801,77.0,10.9,46.66
-0.086,0.896125,10.79,77.0,10.89,46.68
0.024,0.911625,10.778,77.0,10.89,46.75
0.005,0.91425,10.766,77.0,10.89,46.87
-0.042,0.966,10.755,77.0,10.89,47.01
0.096,0.911625,10.744,78.0,10.89,47.17
0.329,0.968625,10.734,78.0,10.89,47.36
-0.031,1.01775,10.724,78.0,10.89,47.56
-0.117,0.963375,10.714,78.0,10.89,47.73
-0.11,0.95825,10.706,78.0,10.89,47.89
-0.114,0.999625,10.699,78.0,10.89,48.02
-0.068,0.942625,10.69,78.0,10.89,48.16
-0.145,0.911625,10.684,78.0,10.89,48.34
0.122,0.90125,10.678,78.0,10.89,48.53
-0.164,0.862375,10.673,78.0,10.89,48.69
-0.063,0.870125,10.666,78.0,10.89,48.84
0.107,0.875375,10.661,85.0,10.89,49.0
0.268,0.90125,10.656,85.0,10.89,49.15
-0.103,0.91425,10.651,85.0,10.89,49.3
-0.15,0.942625,10.646,85.0,10.89,49.44
-0.14,0.92975,10.641,85.0,10.89,49.61
-0.132,0.94525,10.636,85.0,10.89,49.74
-0.109,0.976375,10.631,85.0,10.89,49.88
-0.195,0.984125,10.626,85.0,10.89,50.03
0.093,0.978875,10.621,85.0,10.89,50.2
-0.113,0.97375,10.613,85.0,10.89,50.36
-0.022,0.971125,10.608,85.0,10.89,50.5
0.244,0.984125,10.603,88.0,10.89,50.66
0.055,0.978875,10.598,88.0,10.89,50.78
-0.159,0.88825,10.591,88.0,10.89,50.94
-0.156,0.883125,10.585,88.0,10.89,51.1
-0.139,0.841625,10.579,88.0,10.89,51.18
-0.103,0.875375,10.571,88.0,10.89,51.22
-0.194,0.927125,10.566,88.0,10.89,51.29
0.093,0.932375,10.559,88.0,10.89,51.37
-0.122,1.004875,10.552,88.0,10.89,51.46
-0.026,0.934875,10.546,88.0,10.89,51.5
0.231,0.96075,10.539,91.0,10.9,51.43
0.135,0.966,10.534,91.0,10.9,51.26
-0.129,1.004875,10.526,91.0,10.9,51.14
-0.131,0.968625,10.521,91.0,10.9,51.03
-0.116,0.98925,10.516,91.0,10.9,50.85
-0.063,0.9375,10.51,91.0,10.9,50.6
-0.123,0.92975,10.504,91.0,10.9,50.4
0.07,0.898625,10.499,91.0,10.9,50.18
-0.049,0.85975,10.494,91.0,10.9,49.99
-0.047,0.896125,10.489,91.0,10.9,49.82
0.118,0.88575,10.486,91.0,10.9,49.68
0.333,0.8495,10.483,91.0,10.9,49.52
-0.054,0.922,10.483,91.0,10.9,49.33
-0.109,0.9505,10.484,88.0,10.9,49.12
-0.095,0.883125,10.49,88.0,10.9,48.9
-0.09,0.9245,10.5,88.0,10.9,48.72
-0.044,0.984125,10.516,88.0,10.9,48.52
-0.088,1.028125,10.539,88.0,10.9,48.33
-0.02,1.012625,10.571,88.0,10.9,48.2
0.087,0.947875,10.612,88.0,10.9,48.13
-0.033,0.94525,10.662,88.0,10.9,48.06
0.115,0.919375,10.72,88.0,10.9,47.9
0.373,0.922,10.786,88.0,10.9,47.75
-0.005,0.875375,10.859,88.0,10.9,47.68
-0.088,0.919375,10.937,84.0,10.88,47.66
-0.077,0.833875,11.018,84.0,10.89,47.61
-0.072,0.8805,11.1,84.0,10.88,47.43
-0.082,0.9375,11.18,84.0,10.88,47.28
-0.013,0.911625,11.261,84.0,10.89,47.16
-0.092,0.976375,11.338,84.0,10.89,47.08
0.21,0.934875,11.412,84.0,10.89,47.03
-0.094,0.963375,11.481,84.0,10.89,47.02
-0.003,1.0255,11.542,84.0,10.88,46.97
0.186,1.01775,11.6,84.0,10.89,46.9
0.348,0.963375,11.651,84.0,10.89,46.84
-0.038,0.95825,11.697,84.0,10.89,46.76
-0.077,0.906375,11.736,78.0,10.89,46.73
-0.067,0.963375,11.77,78.0,10.89,46.71
-0.066,0.906375,11.797,78.0,10.89,46.66
-0.079,0.826125,11.819,78.0,10.88,46.65
-0.032,0.821,11.836,78.0,10.89,46.63
-0.054,0.867625,11.851,78.0,10.88,46.59
-0.062,0.91425,11.862,78.0,10.88,46.58
0.162,0.940125,11.87,78.0,10.89,46.59
-0.023,0.932375,11.875,78.0,10.89,46.63
0.104,0.966,11.878,78.0,10.89,46.64
0.386,0.934875,11.876,78.0,10.89,46.64
0.048,0.98675,11.874,78.0,10.89,46.61
-0.073,0.9945,11.869,75.0,10.89,46.61
-0.065,0.947875,11.86,75.0,10.89,46.61
-0.059,0.968625,11.85,75.0,10.89,46.6
-0.071,0.940125,11.84,75.0,10.88,46.58
-0.065,0.9375,11.828,75.0,10.88,46.55
-0.011,0.953,11.814,75.0,10.88,46.54
-0.101,0.911625,11.798,75.0,10.88,46.54
0.186,0.90125,11.781,75.0,10.89,46.59
-0.045,0.852,11.761,75.0,10.88,46.6
0.028,0.87275,11.741,75.0,10.88,46.61
0.266,0.932375,11.717,75.0,10.88,46.6
0.262,0.91675,11.695,75.0,10.88,46.59
-0.063,0.9245,11.67,74.0,10.88,46.59
-0.078,0.953,11.643,74.0,10.88,46.63
-0.069,0.942625,11.616,74.0,10.88,46.64
-0.076,0.953,11.589,74.0,10.88,46.62
-0.087,1.043625,11.561,74.0,10.89,46.59
-0.054,0.963375,11.532,74.0,10.89,46.59
-0.059,0.97375,11.503,74.0,10.89,46.61
-0.103,0.91425,11.475,74.0,10.89,46.66
0.17,0.968625,11.445,74.0,10.89,46.7
-0.037,0.934875,11.415,74.0,10.89,46.74
0.077,0.909,11.385,74.0,10.89,46.75
0.361,0.85975,11.355,74.0,10.89,46.71
0.062,0.8495,11.325,74.0,10.89,46.67
-0.085,0.8805,11.296,74.0,10.88,46.69
-0.081,0.927125,11.266,74.0,10.89,46.74
-0.074,0.971125,11.238,74.0,10.88,46.74
-0.088,0.9375,11.21,74.0,10.89,46.72
-0.079,0.90125,11.183,74.0,10.88,46.74
-0.048,1.035875,11.155,74.0,10.88,46.75
-0.133,1.0255,11.129,74.0,10.88,46.85
0.146,0.9505,11.102,74.0,10.89,47.03
-0.069,0.976375,11.076,74.0,10.89,47.25
0.012,0.9815,11.052,74.0,10.89,47.47
0.276,0.919375,11.029,74.0,10.89,47.66
0.155,0.953,11.004,74.0,10.89,47.86
-0.109,0.90125,10.981,75.0,10.89,48.05
-0.122,0.8805,10.959,75.0,10.88,48.25
-0.112,0.88575,10.938,75.0,10.88,48.41
-0.107,0.875375,10.917,75.0,10.88,48.55
-0.082,0.898625,10.898,75.0,10.89,48.72
-0.17,0.898625,10.878,75.0,10.89,48.91
0.114,0.968625,10.859,75.0,10.89,49.12
-0.093,0.92975,10.842,75.0,10.89,49.3
-0.004,0.940125,10.825,75.0,10.89,49.46
0.262,0.991875,10.807,84.0,10.89,49.62
0.11,1.020375,10.793,84.0,10.89,49.8
-0.131,0.963375,10.78,84.0,10.89,50.02
-0.131,0.9945,10.766,84.0,10.89,50.16
-0.126,0.96075,10.754,84.0,10.89,50.24
-0.083,0.91675,10.743,84.0,10.89,50.32
-0.131,0.968625,10.731,84.0,10.89,50.44
-0.025,0.88825,10.721,84.0,10.89,50.58
0.004,0.890875,10.711,84.0,10.89,50.7
-0.061,0.877875,10.701,84.0,10.89,50.8
0.084,0.870125,10.691,87.0,10.89,50.88
0.328,0.8935,10.682,87.0,10.89,50.84
-0.035,0.966,10.672,87.0,10.89,50.74
-0.111,0.919375,10.664,87.0,10.89,50.61
-0.096,0.883125,10.654,87.0,10.89,50.5
-0.087,0.96075,10.644,87.0,10.89,50.3
-0.036,1.041125,10.636,87.0,10.89,50.11
-0.135,0.984125,10.627,87.0,10.89,49.92
0.166,0.955625,10.617,87.0,10.89,49.72
-0.085,0.9505,10.607,87.0,10.89,49.52
0.007,0.9375,10.597,87.0,10.89,49.33
0.254,0.9945,10.587,87.0,10.89,49.14
0.236,0.906375,10.579,87.0,10.89,48.98
-0.077,0.909,10.57,87.0,10.89,48.83
-0.088,0.852,10.56,87.0,10.89,48.68
-0.074,0.890875,10.551,87.0,10.89,48.49
-0.067,0.919375,10.542,87.0,10.89,48.3
-0.008,0.932375,10.536,87.0,10.89,48.13
-0.111,1.007375,10.53,87.0,10.89,47.99
0.19,0.953,10.526,87.0,10.89,47.87
-0.055,0.96075,10.525,87.0,10.89,47.76
0.027,0.9815,10.528,87.0,10.89,47.66
0.269,0.98925,10.531,87.0,10.89,47.53
0.267,0.947875,10.54,87.0,10.89,47.41
-0.061,0.98925,10.551,84.0,10.89,47.33
-0.074,0.942625,10.564,84.0,10.89,47.24
-0.065,0.953,10.583,84.0,10.9,47.12
-0.067,0.903875,10.6,84.0,10.9,46.98
-0.024,0.903875,10.621,84.0,10.89,46.89
-0.046,0.87275,10.642,84.0,10.89,46.83
-0.069,0.797625,10.665,84.0,10.89,46.8
0.171,0.862375,10.686,84.0,10.89,46.78
-0.019,0.88575,10.707,84.0,10.89,46.76
0.107,0.940125,10.727,84.0,10.89,46.72
0.386,0.919375,10.747,84.0,10.89,46.71
0.05,0.88575,10.765,84.0,10.89,46.71
-0.074,0.984125,10.781,80.0,10.89,46.72
-0.066,0.999625,10.797,80.0,10.89,46.71
-0.062,0.991875,10.812,80.0,10.89,46.67
-0.073,0.966,10.823,80.0,10.89,46.63
-0.033,1.028125,10.837,80.0,10.89,46.64
-0.049,0.9375,10.848,80.0,10.9,46.62
-0.079,0.98925,10.856,80.0,10.9,46.63
0.161,0.940125,10.864,80.0,10.9,46.66
-0.031,0.875375,10.869,80.0,10.9,46.66
0.088,0.8495,10.874,80.0,10.89,46.65
0.051,0.88575,10.879,80.0,10.9,46.64
-0.031,0.906375,10.881,77.0,10.9,46.69
-0.091,0.955625,10.883,77.0,10.89,46.69
-0.089,0.940125,10.882,77.0,10.9,46.69
-0.085,0.88825,10.881,77.0,10.9,46.64
-0.1,0.911625,10.874,77.0,10.89,46.64
-0.086,1.0385,10.876,77.0,10.89,46.64
-0.042,1.033375,10.872,77.0,10.89,46.64
-0.137,1.033375,10.867,77.0,10.89,46.64
0.151,0.976375,10.862,77.0,10.89,46.66
-0.072,0.97375,10.855,77.0,10.9,46.65
0.006,0.8935,10.848,77.0,10.89,46.63
0.266,0.932375,10.841,77.0,10.89,46.64
0.159,0.9245,10.833,77.0,10.89,46.68
-0.108,0.898625,10.823,75.0,10.89,46.7
-0.114,0.808,10.816,75.0,10.89,46.69
-0.107,0.922,10.806,75.0,10.89,46.65
-0.118,0.9245,10.798,75.0,10.9,46.65
-0.126,0.95825,10.788,75.0,10.9,46.65
-0.07,0.955625,10.778,75.0,10.9,46.67
-0.122,0.890875,10.769,75.0,10.9,46.68
0.071,0.9505,10.759,75.0,10.9,46.69
-0.068,0.997125,10.749,75.0,10.9,46.7
-0.061,0.98925,10.739,75.0,10.89,46.67
0.088,0.940125,10.729,74.0,10.9,46.67
0.317,0.940125,10.716,74.0,10.89,46.73
-0.051,0.97375,10.706,74.0,10.9,46.76
-0.131,0.953,10.696,74.0,10.9,46.79
-0.117,0.906375,10.684,74.0,10.9,46.78
-0.115,0.91425,10.672,74.0,10.9,46.74
-0.126,0.82875,10.659,74.0,10.9,46.69
-0.077,0.81325,10.647,74.0,10.9,46.69
-0.114,0.966,10.634,74.0,10.9,46.7
-0.03,0.909,10.621,74.0,10.9,46.73
0.021,0.934875,10.608,74.0,10.89,46.76
-0.067,0.91425,10.596,74.0,10.9,46.74
0.073,0.9245,10.584,77.0,10.9,46.71
0.324,1.01775,10.57,77.0,10.89,46.69
-0.029,0.978875,10.557,77.0,10.89,46.7
-0.122,0.94525,10.544,77.0,10.89,46.72
-0.115,0.92975,10.531,77.0,10.9,46.75
-0.113,0.978875,10.519,77.0,10.89,46.72
-0.125,0.991875,10.506,77.0,10.9,46.69
-0.073,0.940125,10.494,77.0,10.89,46.68
-0.116,0.898625,10.482,77.0,10.9,46.67
0.024,0.852,10.469,77.0,10.89,46.66
-0.032,0.84425,10.458,77.0,10.9,46.7
-0.06,0.88825,10.445,77.0,10.89,46.71
0.083,0.953,10.433,77.0,10.9,46.71
0.324,0.966,10.422,77.0,10.9,46.71
-0.037,0.963375,10.411,77.0,10.9,46.71
-0.115,0.94525,10.401,77.0,10.9,46.73
-0.103,1.01775,10.388,77.0,10.9,46.72
-0.1,0.947875,10.377,77.0,10.9,46.71
-0.109,0.999625,10.366,77.0,10.9,46.67
-0.041,1.01775,10.356,77.0,10.9,46.68
-0.125,0.98675,10.346,77.0,10.9,46.69
0.168,0.947875,10.336,77.0,10.9,46.68
-0.124,0.9505,10.324,77.0,10.89,46.7
-0.019,0.940125,10.314,77.0,10.9,46.69
0.177,0.942625,10.304,77.0,10.9,46.69
0.291,0.870125,10.294,77.0,10.9,46.7
-0.067,0.88575,10.284,77.0,10.9,46.72
-0.095,0.927125,10.275,79.0,10.9,46.73
-0.086,0.9245,10.266,79.0,10.9,46.73
-0.093,0.922,10.256,79.0,10.9,46.73
-0.083,0.91675,10.249,79.0,10.9,46.77
-0.061,0.91675,10.239,79.0,10.9,46.85
-0.143,1.007375,10.232,79.0,10.9,46.94
0.15,0.98675,10.223,79.0,10.9,47.06
-0.063,0.97375,10.214,79.0,10.9,47.23
0.03,1.007375,10.207,79.0,10.9,47.4
0.298,0.927125,10.197,79.0,10.9,47.59
-0.01,0.91425,10.189,79.0,10.9,47.85
-0.107,0.922,10.182,80.0,10.9,48.13
-0.101,0.909,10.174,80.0,10.9,48.41
-0.093,0.896125,10.168,80.0,10.9,48.59
-0.073,0.862375,10.161,80.0,10.9,48.75
-0.087,0.87275,10.146,80.0,10.9,49.1
-0.142,0.9505,10.145,80.0,10.9,49.12
0.131,0.927125,10.14,80.0,10.9,49.4
-0.068,0.94525,10.132,80.0,10.9,49.83
0.043,0.896125,10.126,80.0,10.9,50.14
0.312,0.927125,10.12,80.0,10.9,50.31
0.011,0.963375,10.114,80.0,10.9,50.43
-0.131,1.023,10.106,85.0,10.9,50.55
-0.127,0.971125,10.101,85.0,10.9,50.73
-0.118,0.96075,10.096,85.0,10.9,50.84
-0.078,0.940125,10.089,85.0,10.9,50.92
-0.171,0.906375,10.082,85.0,10.9,51.04
0.119,0.940125,10.076,85.0,10.9,51.24
-0.132,0.8935,10.071,85.0,10.9,51.43
-0.036,0.87275,10.064,85.0,10.9,51.59
0.195,0.875375,10.059,89.0,10.9,51.74
0.182,0.963375,10.053,89.0,10.9,51.87
-0.131,0.932375,10.047,89.0,10.9,52.05
-0.144,0.9375,10.042,89.0,10.9,52.23
-0.125,0.919375,10.037,89.0,10.9,52.36
-0.074,0.877875,10.032,89.0,10.9,52.49
-0.176,1.01775,10.027,89.0,10.9,52.6
0.135,0.97375,10.022,89.0,10.9,52.71
-0.148,0.9945,10.017,89.0,10.9,52.78
-0.035,0.971125,10.013,89.0,10.9,52.83
0.2,0.978875,10.009,93.0,10.9,52.9
0.211,0.955625,10.004,93.0,10.9,52.88
-0.116,0.91675,9.999,93.0,10.9,52.82
-0.127,0.934875,9.997,93.0,10.9,52.77
-0.106,0.898625,9.994,93.0,10.9,52.66
-0.038,0.8495,9.991,93.0,10.9,52.52
-0.136,0.903875,9.991,93.0,10.9,52.32
0.2,0.98675,9.991,93.0,10.9,52.11
-0.148,0.94525,9.994,93.0,10.9,51.95
-0.018,0.940125,9.999,93.0,10.9,51.81
0.197,0.8495,10.008,93.0,10.9,51.66
0.274,0.976375,10.017,93.0,10.9,51.5
-0.085,1.023,10.029,93.0,10.9,51.32
-0.105,0.98675,10.044,91.0,10.9,51.12
-0.087,1.023,10.061,91.0,10.9,50.93
-0.067,1.00225,10.078,91.0,10.9,50.75
-0.031,0.9245,10.098,91.0,10.9,50.59
-0.123,0.932375,10.118,91.0,10.9,50.44
0.193,0.896125,10.138,91.0,10.9,50.28
-0.043,0.940125,10.16,91.0,10.9,50.07
0.049,0.865,10.177,91.0,10.9,49.89
0.337,0.826125,10.198,91.0,10.9,49.73
0.158,0.867625,10.217,91.0,10.9,49.54
-0.073,0.922,10.235,87.0,10.9,49.38
-0.072,0.909,10.252,87.0,10.9,49.25
-0.058,0.903875,10.268,87.0,10.9,49.05
-0.067,0.922,10.281,87.0,10.9,48.86
-0.01,0.978875,10.294,87.0,10.9,48.68
-0.065,0.98925,10.306,87.0,10.9,48.55
0.125,0.976375,10.316,87.0,10.9,48.44
0.014,1.01775,10.324,87.0,10.9,48.33
-0.002,0.966,10.333,87.0,10.9,48.24
0.159,0.955625,10.338,87.0,10.9,48.13
0.398,0.953,10.345,87.0,10.9,48.05
0.003,0.94525,10.347,87.0,10.9,47.96
-0.062,0.9245,10.35,80.0,10.9,47.89
-0.05,0.8365,10.351,80.0,10.9,47.78
-0.047,0.87275,10.351,80.0,10.9,47.63
-0.058,0.95825,10.351,80.0,10.9,47.51
-0.03,0.92975,10.349,80.0,10.9,47.42
-0.013,0.966,10.347,80.0,10.9,47.34
-0.101,0.976375,10.342,80.0,10.9,47.26
0.235,0.978875,10.34,80.0,10.9,47.18
-0.019,0.97375,10.335,80.0,10.9,47.11
0.078,1.00225,10.33,80.0,10.9,47.03
0.367,1.0385,10.323,80.0,10.9,46.98
0.15,0.997125,10.316,80.0,10.9,46.94
-0.063,0.88825,10.309,75.0,10.9,46.89
-0.059,0.927125,10.301,75.0,10.9,46.85
-0.053,0.976375,10.294,75.0,10.9,46.79
-0.061,0.896125,10.285,75.0,10.9,46.72
-0.064,0.841625,10.276,75.0,10.9,46.7
-0.001,0.80025,10.266,75.0,10.9,46.64
-0.088,0.898625,10.256,75.0,10.9,46.61
0.225,0.88575,10.249,75.0,10.9,46.63
-0.085,0.922,10.238,75.0,10.9,46.68
0.012,0.890875,10.227,75.0,10.9,46.71
0.213,0.898625,10.217,75.0,10.9,46.69
0.333,0.966,10.207,75.0,10.9,46.65
-0.042,0.966,10.197,75.0,10.9,46.66
-0.072,1.007375,10.187,75.0,10.9,46.71
-0.061,0.999625,10.174,75.0,10.9,46.71
-0.065,0.9945,10.164,75.0,10.9,46.65
-0.077,0.91675,10.155,75.0,10.9,46.61
-0.035,0.92975,10.145,75.0,10.9,46.6
-0.052,0.97375,10.135,75.0,10.9,46.61
-0.059,0.883125,10.122,75.0,10.9,46.63
0.167,0.85975,10.112,75.0,10.9,46.68
-0.022,0.87275,10.102,75.0,10.9,46.71
0.098,0.934875,10.092,75.0,10.9,46.74
0.378,0.922,10.082,75.0,10.9,46.79
0.051,0.9505,10.072,75.0,10.9,46.86
-0.079,0.9245,10.063,75.0,10.9,46.96
-0.077,0.91425,10.054,75.0,10.9,47.07
-0.069,0.97375,10.045,75.0,10.9,47.17
-0.083,0.991875,10.035,75.0,10.9,47.29
-0.062,0.98925,10.027,75.0,10.9,47.42
-0.051,0.97375,10.018,75.0,10.9,47.6
-0.113,0.934875,10.008,75.0,10.9,47.79
0.181,0.932375,10.0,75.0,10.9,47.97
-0.034,0.919375,9.99,75.0,10.9,48.14
0.074,0.909,9.983,75.0,10.9,48.33
0.358,0.88575,9.976,75.0,10.9,48.53
0.089,0.826125,9.968,75.0,10.9,48.75
-0.075,0.8935,9.961,76.0,10.9,48.94
-0.073,0.92975,9.952,76.0,10.9,49.12
-0.064,0.947875,9.945,76.0,10.9,49.28
-0.06,0.85975,9.937,76.0,10.9,49.44
-0.032,0.883125,9.931,76.0,10.9,49.62
-0.113,0.947875,9.923,76.0,10.9,49.81
0.177,0.919375,9.917,76.0,10.9,49.99
-0.036,0.97375,9.91,76.0,10.9,50.19
0.047,0.95825,9.905,76.0,10.9,50.34
0.315,1.004875,9.897,76.0,10.9,50.45
0.174,0.909,9.892,76.0,10.9,50.58
-0.079,0.927125,9.886,82.0,10.9,50.75
-0.086,0.97375,9.88,82.0,10.9,50.93
-0.08,0.909,9.875,82.0,10.9,51.05
-0.056,0.846875,9.873,82.0,10.9,51.16
-0.078,0.896125,9.869,82.0,10.9,51.3
-0.106,0.90125,9.868,82.0,10.9,51.46
0.151,0.968625,9.865,82.0,10.9,51.63
-0.041,0.940125,9.864,82.0,10.9,51.76
0.083,0.88825,9.862,82.0,10.9,51.89
0.36,0.953,9.862,87.0,10.9,51.99
0.031,0.9505,9.86,87.0,10.9,52.13
-0.1,0.991875,9.86,87.0,10.9,52.26
-0.094,1.048875,9.859,87.0,10.9,52.37
-0.072,0.947875,9.859,87.0,10.9,52.43
-0.043,0.98675,9.859,87.0,10.9,52.51
-0.137,0.88575,9.859,87.0,10.9,52.62
0.17,0.96075,9.859,87.0,10.9,52.69
-0.058,0.92975,9.858,87.0,10.9,52.66
0.036,0.85975,9.857,87.0,10.9,52.59
0.311,0.839125,9.857,87.0,10.9,52.5
0.167,0.906375,9.854,87.0,10.9,52.36
-0.086,0.922,9.853,89.0,10.9,52.23
-0.087,0.984125,9.852,89.0,10.9,52.09
-0.073,0.953,9.85,89.0,10.9,51.86
-0.04,0.947875,9.848,89.0,10.9,51.63
-0.053,0.9505,9.845,89.0,10.9,51.39
-0.107,1.03075,9.843,89.0,10.9,51.17
0.203,1.04625,9.84,89.0,10.9,50.96
-0.031,0.97375,9.838,89.0,10.9,50.76
0.091,0.9945,9.834,89.0,10.9,50.59
0.387,0.94525,9.83,89.0,10.9,50.39
0.068,0.947875,9.829,89.0,10.9,50.17
-0.073,0.96075,9.825,86.0,10.9,49.96
-0.063,0.865,9.822,86.0,10.9,49.73
-0.053,0.769125,9.818,86.0,10.9,49.46
-0.06,0.865,9.814,86.0,10.9,49.22
0.006,0.877875,9.81,86.0,10.9,49.04
-0.092,0.955625,9.804,86.0,10.9,48.86
0.231,0.927125,9.8,86.0,10.9,48.64
-0.018,0.88575,9.797,86.0,10.9,48.45
0.051,0.898625,9.795,86.0,10.9,48.28
0.239,0.978875,9.791,86.0,10.9,48.12
0.313,0.98675,9.786,86.0,10.9,48.0
-0.047,1.064375,9.781,86.0,10.9,47.91
-0.065,1.033375,9.775,80.0,10.9,47.69
-0.056,0.96075,9.773,80.0,10.9,47.67
-0.062,0.9245,9.77,80.0,10.9,47.5
-0.062,0.95825,9.766,80.0,10.9,47.35
-0.002,0.903875,9.761,80.0,10.9,47.28
-0.098,0.87275,9.756,80.0,10.9,47.23
0.191,0.867625,9.751,80.0,10.9,47.15
-0.051,0.8805,9.746,80.0,10.9,47.07
0.02,0.942625,9.741,80.0,10.9,46.98
0.251,0.966,9.738,80.0,10.9,46.93
0.272,0.919375,9.733,80.0,10.9,46.91
-0.06,0.91675,9.728,78.0,10.9,46.88
-0.073,0.92975,9.723,78.0,10.9,46.86
-0.066,1.01525,9.717,78.0,10.9,46.81
-0.071,1.0255,9.711,78.0,10.9,46.77
-0.078,0.968625,9.706,78.0,10.9,46.73
-0.012,0.947875,9.701,78.0,10.9,46.74
-0.102,0.96075,9.696,78.0,10.9,46.81
0.205,0.927125,9.691,78.0,10.9,46.85
-0.095,0.927125,9.688,78.0,10.9,46.86
-0.001,0.906375,9.684,78.0,10.9,46.82
0.196,0.841625,9.679,76.0,10.9,46.79
0.309,0.896125,9.674,76.0,10.9,46.77
-0.058,0.942625,9.669,76.0,10.9,46.78
-0.087,0.909,9.664,76.0,10.9,46.78
-0.076,0.96075,9.659,76.0,10.9,46.77
-0.081,0.966,9.656,76.0,10.9,46.76
-0.092,1.012625,9.651,76.0,10.9,46.73
-0.027,0.98675,9.646,76.0,10.9,46.73
-0.099,1.01775,9.641,76.0,10.9,46.72
0.183,1.007375,9.639,76.0,10.9,46.73
-0.114,0.9505,9.634,76.0,10.9,46.76
-0.025,0.963375,9.63,76.0,10.9,46.75
0.145,0.91425,9.627,76.0,10.9,46.75
0.327,0.906375,9.622,76.0,10.9,46.77
-0.049,0.91425,9.619,76.0,10.9,46.79
-0.097,0.867625,9.614,76.0,10.9,46.8
-0.086,0.911625,9.611,76.0,10.9,46.77
-0.091,0.88825,9.607,76.0,10.9,46.76
-0.105,0.8935,9.602,76.0,10.9,46.72
-0.053,0.963375,9.599,76.0,10.9,46.75
-0.105,0.927125,9.594,76.0,10.9,46.77
0.074,0.867625,9.592,76.0,10.9,46.83
-0.052,0.968625,9.587,76.0,10.9,46.9
-0.054,0.947875,9.583,76.0,10.9,46.99
0.091,0.984125,9.579,76.0,10.9,47.14
0.323,0.991875,9.577,76.0,10.9,47.33
-0.048,0.999625,9.572,76.0,10.9,47.54
-0.124,0.953,9.569,76.0,10.9,47.72
-0.12,0.940125,9.566,76.0,10.9,47.89
-0.124,0.9375,9.562,76.0,10.9,48.04
-0.096,0.85975,9.558,76.0,10.9,48.19
-0.127,0.898625,9.554,76.0,10.9,48.36
-0.117,0.877875,9.552,76.0,10.9,48.52
0.051,0.906375,9.548,76.0,10.9,48.65
-0.092,0.953,9.544,76.0,10.9,48.83
0.03,0.9375,9.542,76.0,10.9,49.03
0.285,0.919375,9.538,83.0,10.9,49.21
-0.042,0.953,9.535,83.0,10.9,49.41
-0.155,0.942625,9.532,83.0,10.9,49.63
-0.146,0.997125,9.529,83.0,10.9,49.83
-0.142,1.056625,9.526,83.0,10.9,49.95
-0.091,0.98675,9.522,83.0,10.9,50.05
-0.188,0.9245,9.52,83.0,10.9,50.2
0.109,0.94525,9.517,83.0,10.9,50.39
-0.175,0.971125,9.515,83.0,10.9,50.56
-0.067,0.940125,9.511,83.0,10.9,50.76
0.144,0.865,9.509,88.0,10.9,50.93
0.194,0.87275,9.506,88.0,10.9,51.05
-0.146,0.947875,9.502,88.0,10.9,51.2
-0.165,0.955625,9.5,88.0,10.9,51.34
-0.151,0.9505,9.497,88.0,10.9,51.49
-0.091,0.96075,9.495,88.0,10.9,51.66
-0.193,0.927125,9.491,88.0,10.9,51.82
0.125,0.953,9.489,88.0,10.9,51.97
-0.209,0.947875,9.487,88.0,10.9,52.11
-0.076,1.01,9.484,88.0,10.9,52.22
0.129,1.03075,9.481,91.0,10.9,52.33
0.213,0.94525,9.479,91.0,10.9,52.43
-0.144,0.9245,9.476,91.0,10.9,52.5
-0.165,0.906375,9.474,91.0,10.9,52.58
-0.139,0.932375,9.47,91.0,10.9,52.63
-0.078,0.911625,9.469,91.0,10.9,52.69
-0.18,0.8805,9.466,91.0,10.9,52.76
0.122,0.85975,9.465,91.0,10.9,52.8
-0.139,0.9245,9.464,91.0,10.9,52.71
-0.034,0.91675,9.461,91.0,10.9,52.54
0.211,0.932375,9.461,94.0,10.9,52.38
0.188,0.927125,9.461,94.0,10.9,52.22
-0.12,0.947875,9.464,94.0,10.9,52.05
-0.127,0.922,9.465,94.0,10.9,51.93
-0.11,0.984125,9.469,94.0,10.9,51.75
-0.049,0.940125,9.472,94.0,10.9,51.51
-0.121,0.97375,9.477,94.0,10.9,51.26
0.149,1.01775,9.483,94.0,10.9,50.96
-0.115,0.942625,9.491,94.0,10.9,50.69
-0.04,0.92975,9.501,94.0,10.9,50.42
0.243,0.8805,9.511,94.0,10.9,50.18
0.239,0.852,9.521,94.0,10.9,49.94
-0.066,0.867625,9.534,90.0,10.9,49.69
-0.111,0.9245,9.548,90.0,10.9,49.46
-0.098,0.934875,9.562,90.0,10.9,49.24
-0.097,0.90125,9.594,90.0,10.9,48.76
-0.035,0.94525,9.597,90.0,10.9,48.74
-0.104,0.90125,9.614,90.0,10.9,48.57
0.149,0.955625,9.63,90.0,10.9,48.43
-0.073,1.004875,9.648,90.0,10.9,48.27
-0.024,1.028125,9.665,90.0,10.89,48.14
0.149,1.023,9.681,90.0,10.89,48.02
0.355,0.991875,9.696,90.0,10.89,47.91
-0.037,0.91425,9.711,90.0,10.89,47.79
-0.089,0.903875,9.723,84.0,10.89,47.67
-0.081,0.942625,9.736,84.0,10.89,47.53
-0.086,0.903875,9.747,84.0,10.9,47.38
-0.096,0.8365,9.757,84.0,10.89,47.32
-0.021,0.818375,9.766,84.0,10.89,47.23
-0.114,0.90125,9.773,84.0,10.89,47.13
0.202,0.976375,9.778,84.0,10.89,47.04
-0.114,0.922,9.783,84.0,10.89,46.98
-0.016,0.922,9.787,84.0,10.89,46.96
0.185,0.94525,9.79,84.0,10.89,46.95
0.307,0.927125,9.791,84.0,10.89,46.93
-0.066,1.035875,9.792,84.0,10.89,46.87
-0.091,1.033375,9.792,78.0,10.89,46.83
-0.08,0.971125,9.792,78.0,10.89,46.79
-0.084,0.984125,9.79,78.0,10.9,46.78
-0.094,0.96075,9.788,78.0,10.89,46.77
-0.044,0.934875,9.786,78.0,10.89,46.79
-0.081,0.934875,9.783,78.0,10.89,46.78
-0.058,0.862375,9.781,78.0,10.89,46.75
0.116,0.883125,9.778,78.0,10.89,46.72
-0.044,0.909,9.775,78.0,10.89,46.71
0.084,0.870125,9.771,78.0,10.89,46.77
0.357,0.8805,9.767,78.0,10.89,46.81
0.018,0.903875,9.763,78.0,10.89,46.82
-0.094,0.911625,9.758,75.0,10.89,46.79
-0.086,0.865,9.756,75.0,10.89,46.77
-0.081,0.976375,9.751,75.0,10.89,46.73
-0.094,0.97375,9.746,75.0,10.89,46.73
-0.071,0.98925,9.741,75.0,10.89,46.74
-0.05,0.966,9.734,75.0,10.89,46.75
-0.131,0.9505,9.728,75.0,10.89,46.76
0.184,0.91425,9.723,75.0,10.89,46.77
-0.046,0.96075,9.716,75.0,10.89,46.78
0.046,0.898625,9.71,75.0,10.89,46.78
0.323,0.85975,9.704,75.0,10.89,46.79
0.123,0.85725,9.696,75.0,10.89,46.8
-0.083,0.8935,9.689,75.0,10.9,46.81
-0.082,0.927125,9.681,75.0,10.89,46.82
-0.073,0.909,9.674,75.0,10.89,46.8
-0.084,0.97375,9.666,75.0,10.9,46.75
-0.074,0.940125,9.659,75.0,10.89,46.74
-0.03,0.8935,9.651,75.0,10.89,46.75
-0.116,1.012625,9.644,75.0,10.89,46.76
0.162,1.004875,9.636,75.0,10.89,46.81
-0.05,1.035875,9.629,75.0,10.9,46.85
0.025,0.997125,9.62,75.0,10.89,46.92
0.273,0.898625,9.613,75.0,10.9,47.04
0.21,0.953,9.607,75.0,10.9,47.21
-0.084,0.9375,9.598,76.0,10.89,47.37
-0.096,0.875375,9.592,76.0,10.9,47.54
-0.088,0.88575,9.584,76.0,10.9,47.71
-0.1,0.85725,9.577,76.0,10.9,47.88
-0.047,0.911625,9.57,76.0,10.9,48.02
-0.126,0.92975,9.563,76.0,10.9,48.14
0.156,0.898625,9.557,76.0,10.89,48.3
-0.152,0.932375,9.55,76.0,10.9,48.47
-0.045,0.91425,9.544,76.0,10.89,48.64
0.119,0.932375,9.539,76.0,10.89,48.81
0.282,1.012625,9.535,76.0,10.9,49.02
-0.092,1.023,9.53,76.0,10.9,49.23
-0.134,0.940125,9.525,81.0,10.9,49.43
-0.123,0.963375,9.52,81.0,10.9,49.61
-0.128,0.92975,9.516,81.0,10.9,49.73
-0.077,0.966,9.512,81.0,10.89,49.88
-0.17,0.919375,9.51,81.0,10.9,50.05
0.134,0.88575,9.506,81.0,10.9,50.24
-0.164,0.870125,9.504,81.0,10.9,50.42
-0.052,0.896125,9.501,81.0,10.9,50.62
0.151,0.92975,9.499,85.0,10.9,50.78
0.216,0.8935,9.497,85.0,10.89,50.94
-0.13,0.922,9.495,85.0,10.9,51.07
-0.15,0.927125,9.494,85.0,10.9,51.23
-0.138,0.9505,9.491,85.0,10.9,51.35
-0.091,0.966,9.489,85.0,10.9,51.49
-0.135,1.0255,9.487,85.0,10.9,51.63
-0.076,0.9815,9.486,85.0,10.9,51.76
0.042,0.955625,9.484,85.0,10.9,51.88
-0.071,0.91675,9.481,85.0,10.9,51.97
0.072,0.9245,9.479,85.0,10.9,52.02
0.323,0.9505,9.476,85.0,10.9,51.92
-0.042,0.88575,9.474,85.0,10.9,51.76
-0.13,0.85725,9.471,89.0,10.9,51.61
-0.114,0.922,9.469,89.0,10.9,51.5
-0.097,0.92975,9.466,89.0,10.9,51.28
-0.054,0.909,9.462,89.0,10.9,51.06
-0.148,0.9375,9.46,89.0,10.9,50.88
0.155,0.9945,9.456,89.0,10.9,50.71
-0.076,0.934875,9.452,89.0,10.9,50.53
0.01,0.927125,9.45,89.0,10.9,50.36
0.27,1.01525,9.445,89.0,10.9,50.18
0.183,1.03075,9.443,89.0,10.9,50.02
-0.092,0.991875,9.439,89.0,10.9,49.86
-0.093,0.947875,9.435,89.0,10.9,49.69
-0.079,0.91675,9.433,89.0,10.9,49.49
-0.059,0.96075,9.43,89.0,10.9,49.26
-0.027,0.91675,9.428,89.0,10.9,49.05
-0.121,0.91425,9.427,89.0,10.9,48.86
0.205,0.877875,9.427,89.0,10.9,48.7
-0.027,0.91425,9.427,89.0,10.9,48.55
0.066,0.91675,9.428,89.0,10.9,48.42
0.351,0.90125,9.43,89.0,10.9,48.28
0.165,0.932375,9.435,89.0,10.9,48.16
-0.056,0.906375,9.441,85.0,10.9,48.06
-0.05,0.919375,9.45,85.0,10.9,47.96
-0.042,0.940125,9.461,85.0,10.9,47.8
-0.037,1.033375,9.475,85.0,10.9,47.63
0.024,1.023,9.49,85.0,10.9,47.49
-0.077,0.966,9.506,85.0,10.9,47.38
0.215,0.953,9.525,85.0,10.9,47.29
-0.025,0.95825,9.543,85.0,10.9,47.19
0.054,0.971125,9.566,85.0,10.9,47.11
0.285,0.867625,9.586,85.0,10.9,47.03
0.3,0.911625,9.607,85.0,10.9,46.97
-0.032,0.87275,9.628,85.0,10.9,46.96
-0.046,0.96075,9.648,82.0,10.9,46.95
-0.038,0.911625,9.668,82.0,10.9,46.9
-0.045,0.896125,9.688,82.0,10.9,46.83
-0.018,0.927125,9.705,82.0,10.9,46.79
-0.017,0.9245,9.721,82.0,10.9,46.77
-0.092,0.997125,9.736,82.0,10.9,46.77
0.218,1.028125,9.749,82.0,10.9,46.78
-0.006,1.0385,9.762,82.0,10.9,46.82
0.103,1.007375,9.772,82.0,10.9,46.83
0.385,0.96075,9.779,82.0,10.9,46.83
0.119,0.934875,9.786,82.0,10.9,46.82
-0.048,0.968625,9.792,80.0,10.9,46.82
-0.044,0.927125,9.796,80.0,10.9,46.83
-0.042,0.88575,9.8,80.0,10.9,46.8
-0.055,0.883125,9.802,80.0,10.9,46.77
0.0,0.91425,9.802,80.0,10.9,46.76
-0.059,0.9245,9.803,80.0,10.9,46.76
0.112,0.883125,9.802,80.0,10.9,46.76
0.007,0.955625,9.801,80.0,10.9,46.79
0.0,0.883125,9.798,80.0,10.9,46.77
0.148,0.890875,9.796,80.0,10.9,46.77
0.38,0.92975,9.792,80.0,10.9,46.76
0.006,1.012625,9.788,80.0,10.9,46.79
-0.063,1.00225,9.783,79.0,10.9,46.82
-0.056,0.98675,9.776,79.0,10.9,46.83
-0.059,0.934875,9.771,79.0,10.9,46.81
-0.071,0.991875,9.763,79.0,10.9,46.76
-0.007,0.91425,9.757,79.0,10.9,46.75
-0.092,0.88825,9.751,79.0,10.9,46.74
0.201,0.911625,9.742,79.0,10.9,46.76
-0.104,0.862375,9.734,79.0,10.9,46.78
-0.005,0.8935,9.726,79.0,10.9,46.79
0.173,0.955625,9.717,79.0,10.9,46.77
0.328,0.95825,9.709,79.0,10.9,46.77
-0.042,0.94525,9.7,79.0,10.9,46.78
-0.081,0.92975,9.69,78.0,10.9,46.8
-0.071,1.007375,9.68,78.0,10.9,46.8
-0.078,0.991875,9.67,78.0,10.9,46.8
-0.079,0.98675,9.66,78.0,10.9,46.78
-0.027,0.963375,9.65,78.0,10.9,46.78
-0.12,0.909,9.64,78.0,10.9,46.81
0.147,0.92975,9.63,78.0,10.9,46.87
-0.071,0.91425,9.62,78.0,10.9,47.0
0.0,0.9375,9.608,78.0,10.9,47.12
0.225,0.903875,9.598,78.0,10.9,47.24
0.217,0.877875,9.588,78.0,10.9,47.41
-0.093,0.8935,9.578,79.0,10.9,47.6
-0.109,0.94525,9.568,79.0,10.9,47.79
-0.099,0.890875,9.558,79.0,10.9,47.94
-0.102,0.92975,9.548,79.0,10.89,48.09
-0.065,0.934875,9.538,79.0,10.9,48.25
-0.157,0.976375,9.531,79.0,10.9,48.43
0.107,0.991875,9.522,79.0,10.9,48.65
-0.102,1.041125,9.513,79.0,10.9,48.81
-0.018,1.00225,9.505,79.0,10.9,48.94
0.209,0.963375,9.496,85.0,10.9,49.08
0.164,0.94525,9.488,85.0,10.9,49.25
-0.125,0.96075,9.481,85.0,10.9,49.48
-0.135,0.92975,9.472,85.0,10.9,49.71
-0.13,0.922,9.466,85.0,10.9,49.89
-0.084,0.911625,9.458,85.0,10.9,49.99
-0.15,0.903875,9.451,85.0,10.9,50.13
0.021,0.966,9.445,85.0,10.9,50.32
-0.084,0.87275,9.44,85.0,10.9,50.53
-0.077,0.90125,9.433,85.0,10.9,50.73
0.074,0.87275,9.428,88.0,10.9,50.89
0.283,0.942625,9.423,88.0,10.9,51.04
-0.085,0.911625,9.418,88.0,10.9,51.19
-0.149,0.966,9.413,88.0,10.9,51.35
-0.134,1.03075,9.408,88.0,10.9,51.5
-0.086,0.963375,9.404,88.0,10.9,51.59
-0.131,0.942625,9.4,88.0,10.9,51.66
-0.096,0.92975,9.395,88.0,10.9,51.76
0.053,0.940125,9.392,88.0,10.9,51.84
-0.072,0.909,9.388,88.0,10.9,51.9
0.069,0.883125,9.383,88.0,10.9,51.98
0.318,0.877875,9.38,91.0,10.9,52.05
-0.037,0.896125,9.375,91.0,10.9,52.13
-0.125,0.922,9.372,91.0,10.9,52.22
-0.112,0.8935,9.368,91.0,10.9,52.25
-0.058,0.940125,9.363,91.0,10.9,52.1
-0.092,0.88575,9.361,91.0,10.9,51.95
-0.104,0.870125,9.356,91.0,10.9,51.82
0.124,0.976375,9.352,91.0,10.9,51.67
-0.05,1.07475,9.348,91.0,10.9,51.45
0.086,1.033375,9.343,91.0,10.9,51.23
0.356,0.9815,9.341,91.0,10.9,51.03
0.006,0.94525,9.336,91.0,10.9,50.83
-0.097,0.976375,9.333,93.0,10.9,50.67
-0.086,0.940125,9.33,93.0,10.9,50.52
-0.073,0.91675,9.327,93.0,10.9,50.3
-0.022,0.88575,9.325,93.0,10.9,50.09
-0.125,0.8805,9.322,93.0,10.9,49.91
0.185,0.966,9.322,93.0,10.9,49.7
-0.071,0.88575,9.323,93.0,10.9,49.48
0.017,0.940125,9.325,93.0,10.9,49.29
0.26,0.953,9.327,93.0,10.9,49.13
0.244,0.91675,9.331,93.0,10.9,48.97
-0.065,0.9245,9.333,88.0,10.9,48.79
-0.075,1.033375,9.338,88.0,10.9,48.63
-0.062,1.007375,9.344,88.0,10.9,48.47
-0.059,0.976375,9.351,88.0,10.9,48.29
0.003,0.91425,9.357,88.0,10.9,48.12
-0.099,0.966,9.363,88.0,10.9,48.0
0.213,0.9375,9.369,88.0,10.9,47.91
-0.059,0.9245,9.375,88.0,10.9,47.83
0.027,0.8935,9.38,88.0,10.9,47.73
0.253,0.896125,9.385,88.0,10.9,47.62
0.304,0.88575,9.389,88.0,10.9,47.5
-0.046,0.934875,9.393,88.0,10.9,47.41
-0.064,0.867625,9.394,84.0,10.9,47.35
-0.06,0.906375,9.397,84.0,10.9,47.23
-0.064,0.890875,9.399,84.0,10.9,47.1
-0.038,0.909,9.399,84.0,10.9,47.03
-0.038,0.94525,9.399,84.0,10.9,46.99
-0.116,1.067,9.399,84.0,10.9,46.94
0.201,1.0515,9.397,84.0,10.9,46.93
-0.033,0.942625,9.395,84.0,10.9,46.92
0.069,0.934875,9.394,84.0,10.9,46.87
0.355,0.909,9.392,84.0,10.9,46.82
0.097,0.922,9.389,84.0,10.9,46.81
-0.076,0.942625,9.385,80.0,10.9,46.8
-0.073,0.88575,9.383,80.0,10.9,46.82
-0.071,0.852,9.38,80.0,10.9,46.79
-0.081,0.896125,9.375,80.0,10.9,46.74
-0.035,0.909,9.373,80.0,10.9,46.73
-0.066,0.91675,9.368,80.0,10.9,46.74
-0.06,1.004875,9.365,80.0,10.9,46.76
0.135,0.94525,9.361,80.0,10.9,46.79
-0.032,0.934875,9.356,80.0,10.9,46.81
0.094,1.023,9.351,80.0,10.9,46.79
0.363,1.0385,9.346,80.0,10.9,46.79
0.028,0.97375,9.341,80.0,10.9,46.81
-0.087,0.922,9.338,78.0,10.9,46.81
-0.083,0.95825,9.333,78.0,10.9,46.82
-0.082,0.98675,9.328,78.0,10.9,46.81
-0.092,0.9505,9.323,78.0,10.9,46.81
-0.046,0.927125,9.318,78.0,10.9,46.85
-0.087,0.90125,9.313,78.0,10.9,46.93
-0.006,0.862375,9.308,78.0,10.9,47.03
0.05,0.890875,9.305,78.0,10.9,47.18
-0.045,0.91675,9.302,78.0,10.9,47.3
0.089,0.96075,9.301,78.0,10.9,47.43
0.332,0.922,9.302,78.0,10.9,47.58
-0.017,0.91425,9.306,78.0,10.9,47.77
-0.113,0.94525,9.312,78.0,10.9,47.95
-0.105,1.00225,9.322,78.0,10.9,48.1
-0.107,1.041125,9.336,78.0,10.9,48.22
-0.088,0.9505,9.351,78.0,10.9,48.35
-0.097,0.9245,9.369,78.0,10.9,48.51
-0.155,0.96075,9.39,78.0,10.9,48.7
0.126,0.906375,9.413,78.0,10.9,48.9
-0.076,0.909,9.439,78.0,10.9,49.07
0.032,0.877875,9.465,78.0,10.9,49.23
0.296,0.87275,9.492,82.0,10.9,49.4
0.008,0.88825,9.52,82.0,10.9,49.6
-0.138,0.88825,9.545,82.0,10.9,49.81
-0.13,0.922,9.572,82.0,10.9,49.99
-0.128,0.942625,9.597,82.0,10.9,50.08
-0.077,0.8935,9.621,82.0,10.9,50.19
-0.155,0.927125,9.643,82.0,10.9,50.36
0.13,0.984125,9.661,82.0,10.9,50.55
-0.166,0.968625,9.68,82.0,10.9,50.74
-0.063,0.9945,9.696,82.0,10.9,50.91
0.109,0.92975,9.711,87.0,10.9,51.08
0.274,0.94525,9.723,87.0,10.9,51.21
-0.1,0.955625,9.734,87.0,10.9,51.36
-0.142,0.92975,9.744,87.0,10.9,51.5
-0.127,0.91425,9.753,87.0,10.9,51.64
-0.087,0.906375,9.759,87.0,10.9,51.73
-0.119,0.854625,9.767,87.0,10.9,51.79
-0.125,0.927125,9.773,87.0,10.9,51.88
0.101,0.898625,9.778,87.0,10.9,51.95
-0.07,0.940125,9.78,87.0,10.9,51.97
0.062,0.896125,9.78,87.0,10.9,52.01
0.323,0.947875,9.78,87.0,10.9,51.99
-0.02,0.947875,9.777,87.0,10.9,51.91
-0.124,1.0255,9.775,90.0,10.9,51.84
-0.112,0.98925,9.771,90.0,10.9,51.75
-0.095,0.9945,9.766,90.0,10.9,51.57
-0.053,0.96075,9.761,90.0,10.9,51.38
-0.144,0.942625,9.756,90.0,10.9,51.21
0.164,0.934875,9.749,90.0,10.9,51.05
-0.085,0.942625,9.743,90.0,10.9,50.89
0.003,0.875375,9.736,90.0,10.9,50.7
0.249,0.903875,9.727,90.0,10.9,50.52
0.213,0.947875,9.719,90.0,10.9,50.34
-0.087,0.95825,9.71,88.0,10.9,50.14
-0.095,0.909,9.701,88.0,10.9,49.93
-0.081,0.896125,9.692,88.0,10.9,49.66
-0.065,0.94525,9.68,88.0,10.9,49.38
-0.035,0.947875,9.67,88.0,10.9,49.14
-0.125,0.991875,9.659,88.0,10.9,48.94
0.189,1.01,9.647,88.0,10.9,48.78
-0.038,1.033375,9.635,88.0,10.9,48.61
0.047,0.91425,9.623,88.0,10.9,48.45
0.326,0.92975,9.612,88.0,10.9,48.31
0.035,0.966,9.6,88.0,10.9,48.17
-0.077,0.942625,9.588,85.0,10.9,48.06
-0.074,0.9245,9.577,85.0,10.9,47.96
-0.068,0.9375,9.564,85.0,10.9,47.81
-0.062,0.909,9.552,85.0,10.9,47.65
-0.009,0.909,9.53,85.0,10.9,47.4
-0.108,0.88825,9.53,85.0,10.9,47.39
0.179,0.906375,9.518,85.0,10.9,47.27
-0.057,0.91425,9.508,85.0,10.9,47.19
0.016,0.870125,9.497,85.0,10.9,47.13
0.249,0.9505,9.486,85.0,10.9,47.06
0.255,1.007375,9.476,85.0,10.9,47.01
-0.073,1.0255,9.466,83.0,10.9,46.98
-0.086,0.940125,9.456,83.0,10.9,46.98
-0.079,0.984125,9.446,83.0,10.9,46.93
-0.088,0.909,9.436,83.0,10.9,46.87
-0.052,0.92975,9.429,83.0,10.9,46.82
-0.066,0.947875,9.419,83.0,10.9,46.81
-0.122,0.927125,9.41,83.0,10.9,46.81
0.162,0.883125,9.401,83.0,10.9,46.82
-0.053,0.9505,9.391,83.0,10.9,46.82
0.063,0.8935,9.383,83.0,10.9,46.8
0.337,0.88575,9.375,83.0,10.9,46.78
0.042,0.922,9.366,83.0,10.9,46.81
-0.097,0.903875,9.359,80.0,10.9,46.83
-0.086,0.911625,9.352,80.0,10.9,46.82
-0.083,1.004875,9.344,80.0,10.9,46.8
-0.09,1.012625,9.337,80.0,10.9,46.77
-0.023,0.971125,9.329,80.0,10.9,46.77
-0.11,0.9505,9.323,80.0,10.9,46.8
0.184,0.9945,9.316,80.0,10.9,46.82
-0.121,0.922,9.309,80.0,10.9,46.86
-0.018,0.934875,9.303,80.0,10.9,46.87
0.161,0.91675,9.296,80.0,10.9,46.9
0.308,0.88575,9.288,80.0,10.9,47.02
-0.063,0.896125,9.281,80.0,10.9,47.18
-0.101,0.883125,9.275,80.0,10.9,47.36
-0.094,0.9505,9.269,80.0,10.9,47.51
-0.102,0.96075,9.262,80.0,10.9,47.64
-0.046,0.919375,9.256,80.0,10.9,47.77
-0.139,0.922,9.251,80.0,10.9,47.92
0.158,0.940125,9.244,80.0,10.9,48.15
-0.159,0.955625,9.239,80.0,10.9,48.36
-0.041,1.041125,9.232,80.0,10.9,48.54
0.134,0.932375,9.226,84.0,10.9,48.72
0.255,0.932375,9.221,84.0,10.9,48.91
-0.098,0.947875,9.215,84.0,10.9,49.11
-0.13,0.978875,9.209,84.0,10.9,49.31
-0.119,0.919375,9.204,84.0,10.9,49.52
-0.086,0.940125,9.199,84.0,10.9,49.69
-0.118,0.85975,9.194,84.0,10.9,49.87
-0.134,0.88825,9.189,84.0,10.9,50.07
0.074,0.9245,9.184,84.0,10.9,50.27
-0.086,0.906375,9.179,84.0,10.9,50.46
0.04,0.9375,9.174,84.0,10.9,50.66
0.293,0.91675,9.169,89.0,10.9,50.83
-0.039,0.92975,9.164,89.0,10.9,50.99
-0.143,0.95825,9.161,89.0,10.9,51.14
-0.13,1.023,9.157,89.0,10.9,51.29
-0.093,1.004875,9.152,89.0,10.9,51.39
-0.108,0.95825,9.147,89.0,10.9,51.48
-0.165,0.947875,9.144,89.0,10.9,51.56
0.128,0.92975,9.141,89.0,10.9,51.59
-0.074,0.9245,9.138,89.0,10.9,51.48
0.049,0.953,9.136,89.0,10.9,51.33
0.32,0.896125,9.136,89.0,10.9,51.17
0.008,0.909,9.136,89.0,10.9,50.98
-0.11,0.8935,9.136,91.0,10.9,50.8
-0.099,0.875375,9.137,91.0,10.9,50.63
-0.081,0.96075,9.142,91.0,10.9,50.38
-0.031,0.911625,9.145,91.0,10.9,50.1
0.184,0.927125,9.152,91.0,10.9,49.86
0.187,0.942625,9.16,91.0,10.9,49.59
-0.061,1.028125,9.172,91.0,10.9,49.36
0.026,1.00225,9.184,89.0,10.9,49.21
0.269,0.94525,9.2,89.0,10.9,49.01
0.234,0.98675,9.239,89.0,10.9,48.64
-0.064,0.942625,9.24,89.0,10.9,48.62
-0.07,0.9815,9.263,89.0,10.9,48.47
-0.057,0.978875,9.287,89.0,10.9,48.29
-0.009,0.9245,9.313,89.0,10.9,48.07
-0.052,0.870125,9.339,89.0,10.9,47.89
-0.039,0.865,9.368,89.0,10.9,47.71
0.145,0.88575,9.396,89.0,10.9,47.57
-0.013,0.90125,9.426,89.0,10.9,47.45
0.124,0.919375,9.456,89.0,10.9,47.34
0.383,0.909,9.486,89.0,10.9,47.25
0.025,0.9245,9.513,89.0,10.9,47.18
-0.063,0.96075,9.542,130.0,10.9,47.13
-0.055,0.978875,9.567,130.0,10.9,47.08
-0.051,1.0385,9.592,130.0,10.9,47.03
0.004,0.966,9.613,130.0,10.9,46.98
-0.067,0.922,9.629,130.0,10.9,46.95
0.152,0.8935,9.646,130.0,10.9,46.93
-0.03,0.9375,9.663,130.0,10.9,46.93
0.007,0.898625,9.677,130.0,10.9,46.96
0.174,0.922,9.689,130.0,10.9,46.96
0.368,0.854625,9.7,130.0,10.9,46.93
-0.004,0.8805,9.707,130.0,10.9,46.94
-0.048,0.898625,9.714,130.0,10.9,46.94
-0.04,0.942625,9.718,130.0,10.9,46.93
-0.039,0.9245,9.721,130.0,10.9,46.87
0.008,0.8935,9.722,130.0,10.9,46.86
-0.043,0.9945,9.722,130.0,10.9,46.84
0.032,1.007375,9.722,130.0,10.9,46.83
0.087,1.0385,9.718,130.0,10.9,46.87
-0.004,0.9375,9.72,130.0,10.9,46.88
0.137,0.978875,9.716,130.0,10.9,46.88
0.37,0.971125,9.713,130.0,10.9,46.86
0.005,0.91425,9.709,130.0,10.9,46.9
-0.075,0.963375,9.704,130.0,10.9,46.96
-0.069,0.906375,9.699,130.0,10.9,47.04
-0.071,0.896125,9.694,130.0,10.9,47.08
-0.041,0.877875,9.689,130.0,10.9,47.21
-0.072,0.862375,9.681,130.0,10.9,47.39
-0.087,0.95825,9.675,130.0,10.9,47.59
0.119,0.940125,9.669,130.0,10.9,47.75
-0.04,0.903875,9.661,130.0,10.9,47.95
0.081,0.919375,9.652,130.0,10.9,48.14
0.329,0.976375,9.644,130.0,10.9,48.35
-0.004,1.004875,9.635,130.0,10.9,48.54
-0.11,0.97375,9.625,130.0,10.9,48.77
-0.102,0.927125,9.615,130.0,10.9,48.99
-0.093,0.932375,9.605,130.0,10.9,49.16
-0.05,0.90125,9.595,130.0,10.9,49.31
-0.146,0.940125,9.587,130.0,10.9,49.5
0.128,0.903875,9.578,130.0,10.9,49.74
-0.116,0.932375,9.568,130.0,10.9,49.94
-0.015,0.84425,9.56,130.0,10.9,50.12
0.124,0.862375,9.552,88.0,10.9,50.29
0.085,0.8935,9.544,88.0,10.9,50.44
-0.11,0.92975,9.537,88.0,10.9,50.62
-0.122,0.87275,9.532,88.0,10.9,50.8
-0.111,0.90125,9.529,88.0,10.9,50.94
-0.06,0.940125,9.522,88.0,10.9,51.18
-0.141,0.97375,9.521,88.0,10.9,51.2
0.123,1.00225,9.519,88.0,10.9,51.34
-0.141,0.955625,9.516,88.0,10.9,51.47
-0.051,0.955625,9.514,88.0,10.9,51.6
0.121,0.940125,9.511,90.0,10.9,51.71
0.279,0.96075,9.507,90.0,10.9,51.81
-0.093,0.947875,9.505,90.0,10.9,51.93
-0.132,0.94525,9.501,90.0,10.9,52.06
-0.112,0.862375,9.497,90.0,10.9,52.13
-0.059,0.8495,9.492,90.0,10.9,52.11
-0.121,0.911625,9.49,90.0,10.9,52.07
0.031,0.978875,9.485,90.0,10.9,52.03
-0.023,0.963375,9.477,90.0,10.9,51.93
-0.045,0.934875,9.472,90.0,10.9,51.82
0.116,0.898625,9.466,90.0,10.9,51.7
0.327,0.978875,9.458,90.0,10.9,51.57
-0.05,1.012625,9.452,90.0,10.9,51.42
-0.108,1.00225,9.445,91.0,10.9,51.3
-0.092,0.94525,9.439,91.0,10.9,51.15
-0.078,0.9815,9.431,91.0,10.9,50.96
-0.029,0.92975,9.424,91.0,10.9,50.77
-0.127,0.940125,9.416,91.0,10.9,50.61
0.183,0.903875,9.408,91.0,10.9,50.48
-0.063,0.898625,9.401,91.0,10.9,50.32
0.021,0.883125,9.391,91.0,10.9,50.14
0.268,0.8495,9.384,91.0,10.9,49.97
0.223,0.922,9.375,91.0,10.9,49.8
-0.068,0.909,9.369,87.0,10.9,49.67
-0.073,0.947875,9.363,87.0,10.9,49.52
-0.059,0.91675,9.358,87.0,10.9,49.31
-0.039,0.968625,9.355,87.0,10.9,49.08
-0.018,1.004875,9.353,87.0,10.9,48.87
-0.107,1.0515,9.356,87.0,10.9,48.68
0.217,0.95825,9.361,87.0,10.9,48.53
-0.016,0.942625,9.369,87.0,10.9,48.34
0.079,0.978875,9.38,87.0,10.9,48.21
0.36,0.909,9.398,87.0,10.9,48.06
0.144,0.932375,9.417,87.0,10.9,47.92
-0.056,0.95825,9.44,86.0,10.9,47.88
-0.053,0.91425,9.465,86.0,10.9,47.85
-0.045,0.85725,9.492,86.0,10.9,47.71
-0.03,0.870125,9.521,86.0,10.9,47.52
-0.001,0.911625,9.55,86.0,10.9,47.38
-0.094,0.9375,9.578,86.0,10.9,47.29
0.199,0.88825,9.605,86.0,10.9,47.22
-0.015,0.971125,9.632,86.0,10.9,47.15
0.065,0.971125,9.656,86.0,10.9,47.09
0.332,1.01525,9.68,86.0,10.9,47.04
0.179,0.984125,9.7,86.0,10.9,47.02
-0.058,0.940125,9.718,83.0,10.9,46.99
-0.057,0.95825,9.736,83.0,10.89,46.97
-0.055,0.9245,9.751,83.0,10.9,46.92
-0.054,0.94525,9.762,83.0,10.9,46.88
-0.007,0.968625,9.774,83.0,10.9,46.89
-0.107,0.883125,9.784,83.0,10.9,46.93
0.166,0.85975,9.792,83.0,10.9,46.95
-0.057,0.8935,9.802,83.0,10.9,46.97
0.018,0.96075,9.809,83.0,10.9,46.95
0.248,0.90125,9.816,83.0,10.9,46.92
0.223,0.91675,9.826,83.0,10.9,46.91
-0.08,0.91425,9.834,83.0,10.9,46.96
-0.092,0.95825,9.846,83.0,10.9,47.06
-0.084,0.940125,9.86,83.0,10.9,47.14
-0.074,0.999625,9.875,83.0,10.9,47.23
-0.05,0.95825,9.891,83.0,10.9,47.35
0.121,0.9375,9.909,83.0,10.9,47.53
0.132,0.9245,9.929,83.0,10.9,47.72
-0.073,0.862375,9.95,83.0,10.9,47.89
0.008,0.906375,9.97,85.0,10.9,48.1
0.261,0.92975,9.988,85.0,10.9,48.29
0.108,0.890875,10.027,85.0,10.9,48.69
-0.12,0.854625,10.029,85.0,10.9,48.72
-0.119,0.833875,10.047,85.0,10.9,48.92
-0.114,0.911625,10.062,85.0,10.9,49.08
-0.063,0.883125,10.076,85.0,10.9,49.23
-0.154,0.934875,10.087,85.0,10.9,49.41
0.126,0.966,10.096,85.0,10.9,49.61
-0.175,0.942625,10.104,85.0,10.9,49.81
-0.061,0.963375,10.108,85.0,10.9,49.99
0.112,0.968625,10.11,85.0,10.9,50.16
0.243,0.940125,10.109,85.0,10.9,50.34
-0.119,0.95825,10.106,85.0,10.9,50.52
-0.151,0.8805,10.103,85.0,10.9,50.71
-0.142,0.91675,10.096,85.0,10.9,50.87
-0.095,0.96075,10.09,85.0,10.9,50.97
-0.155,0.911625,10.082,85.0,10.9,51.07
-0.039,0.867625,10.072,85.0,10.9,51.21
-0.035,0.867625,10.063,85.0,10.9,51.37
-0.085,0.906375,10.052,85.0,10.9,51.49
0.063,0.932375,10.038,91.0,10.9,51.59
0.278,0.88825,10.024,91.0,10.9,51.68
-0.091,0.927125,10.011,91.0,10.9,51.78
-0.152,0.96075,9.997,91.0,10.9,51.89
-0.135,0.96075,9.982,91.0,10.9,52.01
-0.078,0.955625,9.967,91.0,10.9,52.04
-0.134,1.05925,9.95,91.0,10.9,52.01
-0.037,1.020375,9.934,91.0,10.9,51.96
0.026,0.94525,9.917,91.0,10.9,51.88
-0.057,0.88825,9.899,91.0,10.9,51.75
0.098,0.9815,9.882,93.0,10.9,51.58
0.323,0.940125,9.863,93.0,10.9,51.35
-0.047,0.906375,9.844,93.0,10.9,51.12
-0.113,0.826125,9.827,93.0,10.9,50.91
-0.099,0.88575,9.808,93.0,10.9,50.69
-0.085,0.942625,9.791,93.0,10.9,50.42
-0.031,0.87275,9.772,93.0,10.9,50.14
-0.138,0.898625,9.752,93.0,10.9,49.9
0.17,0.88825,9.735,93.0,10.9,49.67
-0.082,0.942625,9.715,93.0,10.9,49.43
0.004,0.9945,9.698,93.0,10.9,49.22
0.244,0.999625,9.678,93.0,10.9,49.03
0.223,0.934875,9.66,93.0,10.9,48.85
-0.084,0.919375,9.643,87.0,10.9,48.68
-0.093,0.963375,9.624,87.0,10.9,48.53
-0.079,0.953,9.607,87.0,10.9,48.35
-0.061,0.9815,9.591,87.0,10.9,48.15
-0.033,0.922,9.573,87.0,10.9,47.99
-0.135,0.896125,9.557,87.0,10.9,47.85
0.168,0.85725,9.542,87.0,10.9,47.76
-0.05,0.947875,9.527,87.0,10.9,47.67
0.03,0.968625,9.513,87.0,10.9,47.57
0.305,0.91675,9.5,87.0,10.9,47.46
0.146,0.963375,9.487,87.0,10.9,47.36
-0.082,0.942625,9.476,85.0,10.9,47.28
-0.081,0.968625,9.466,85.0,10.9,47.18
-0.074,0.9815,9.457,85.0,10.9,47.07
-0.066,0.96075,9.45,85.0,10.9,46.99
-0.023,0.9945,9.443,85.0,10.9,46.95
-0.122,0.919375,9.438,85.0,10.9,46.91
0.152,0.932375,9.433,85.0,10.9,46.88
-0.061,0.94525,9.429,85.0,10.9,46.9
0.01,0.940125,9.425,85.0,10.9,46.94
0.256,0.906375,9.422,85.0,10.89,46.98
0.179,0.865,9.419,85.0,10.89,47.02
-0.095,0.927125,9.418,84.0,10.88,47.11
-0.099,0.91675,9.415,84.0,10.89,47.21
-0.095,0.8805,9.413,84.0,10.88,47.29
-0.088,0.96075,9.41,84.0,10.88,47.37
-0.058,0.934875,9.408,84.0,10.88,47.5
-0.157,0.947875,9.407,84.0,10.89,47.66
0.123,1.03075,9.403,84.0,10.89,47.86
-0.088,0.991875,9.4,84.0,10.89,48.05
-0.004,1.00225,9.395,84.0,10.88,48.26
0.25,0.95825,9.393,84.0,10.88,48.45
0.095,0.9245,9.388,84.0,10.89,48.65
-0.131,0.96075,9.385,84.0,10.89,48.85
-0.131,0.91675,9.38,84.0,10.88,49.03
-0.123,0.9505,9.375,84.0,10.89,49.2
-0.07,0.90125,9.37,84.0,10.88,49.39
-0.152,0.852,9.365,84.0,10.88,49.59
0.08,0.91425,9.361,84.0,10.89,49.79
-0.133,0.90125,9.353,84.0,10.88,49.98
-0.07,0.909,9.348,84.0,10.88,50.14
0.092,0.940125,9.343,89.0,10.88,50.32
0.263,0.997125,9.338,89.0,10.88,50.47
-0.105,0.955625,9.333,89.0,10.88,50.65
-0.15,1.01775,9.326,89.0,10.88,50.84
-0.136,0.978875,9.321,89.0,10.88,50.99
-0.089,1.033375,9.314,89.0,10.88,51.09
-0.145,0.947875,9.307,89.0,10.88,51.2
-0.083,0.883125,9.301,89.0,10.89,51.33
0.011,0.95825,9.294,89.0,10.89,51.47
-0.085,0.966,9.287,89.0,10.88,51.56
0.058,0.883125,9.279,89.0,10.88,51.65
0.287,0.854625,9.274,91.0,10.88,51.74
-0.074,0.85975,9.266,91.0,10.88,51.82
-0.144,0.942625,9.259,91.0,10.88,51.94
-0.127,0.8935,9.25,91.0,10.88,52.03
-0.077,0.942625,9.242,91.0,10.88,52.06
-0.12,0.91675,9.235,91.0,10.88,52.05
-0.093,0.903875,9.227,91.0,10.88,52.04
0.077,0.984125,9.22,91.0,10.88,51.97
-0.066,0.999625,9.211,91.0,10.88,51.81
0.077,1.00225,9.204,91.0,10.88,51.68
0.318,0.96075,9.196,91.0,10.88,51.52
-0.042,0.906375,9.189,91.0,10.88,51.35
-0.124,0.903875,9.18,91.0,10.88,51.2
-0.111,0.95825,9.174,91.0,10.88,51.03
-0.098,0.940125,9.167,91.0,10.88,50.79
-0.049,0.839125,9.159,91.0,10.88,50.52
-0.151,0.82875,9.153,91.0,10.88,50.25
0.15,0.94525,9.147,91.0,10.89,50.01
-0.091,0.87275,9.139,91.0,10.88,49.77
-0.008,0.91675,9.134,91.0,10.88,49.56
0.24,0.903875,9.129,91.0,10.88,49.33
0.184,0.919375,9.126,91.0,10.88,49.1
-0.099,0.940125,9.123,88.0,10.88,48.91
-0.102,1.00225,9.121,88.0,10.88,48.71
-0.092,1.007375,9.121,88.0,10.88,48.5
-0.065,0.940125,9.122,88.0,10.88,48.29
-0.054,0.966,9.127,88.0,10.88,48.11
-0.146,0.898625,9.132,88.0,10.88,47.96
0.182,0.963375,9.138,88.0,10.88,47.85
-0.046,0.919375,9.148,88.0,10.88,47.75
0.062,0.898625,9.158,88.0,10.88,47.66
0.344,0.85975,9.17,88.0,10.88,47.55
0.088,0.8805,9.184,88.0,10.88,47.45
-0.077,0.896125,9.199,87.0,10.88,47.39
-0.068,0.826125,9.214,87.0,10.88,47.33
-0.065,0.9375,9.231,87.0,10.88,47.22
-0.035,0.934875,9.248,87.0,10.88,47.09
-0.04,0.9245,9.265,87.0,10.88,47.01
-0.115,1.023,9.282,87.0,10.88,46.96
0.192,0.978875,9.298,87.0,10.88,46.94
-0.028,0.976375,9.315,87.0,10.88,46.94
0.08,0.909,9.331,87.0,10.88,46.92
0.355,0.922,9.344,87.0,10.89,46.89
0.068,0.92975,9.358,87.0,10.88,46.88
-0.075,0.927125,9.369,84.0,10.88,46.9
-0.067,0.91675,9.381,84.0,10.88,46.88
-0.065,0.947875,9.389,84.0,10.88,46.82
-0.038,0.88825,9.398,84.0,10.88,46.79
-0.04,0.903875,9.405,84.0,10.88,46.79
-0.122,0.940125,9.41,84.0,10.88,46.77
0.18,0.942625,9.414,84.0,10.88,46.78
-0.04,0.968625,9.417,84.0,10.88,46.83
0.281,0.955625,9.419,84.0,10.88,46.91
0.338,0.940125,9.419,84.0,10.88,47.02
0.056,0.991875,9.419,84.0,10.88,47.15
-0.093,1.035875,9.417,84.0,10.88,47.32
-0.09,0.991875,9.415,84.0,10.88,47.48
-0.088,0.906375,9.409,84.0,10.88,47.7
-0.05,0.9375,9.409,84.0,10.88,47.72
-0.094,0.92975,9.403,84.0,10.88,47.87
-0.061,0.92975,9.398,84.0,10.88,48.04
0.066,0.922,9.393,84.0,10.88,48.21
-0.051,0.852,9.386,84.0,10.88,48.37
0.08,0.9245,9.38,84.0,10.88,48.56
0.309,0.90125,9.373,84.0,10.88,48.74
-0.032,0.87275,9.364,84.0,10.88,48.92
-0.116,0.919375,9.351,85.0,10.88,49.13
-0.103,0.934875,9.341,85.0,10.88,49.31
-0.093,0.906375,9.333,85.0,10.88,49.45
-0.064,1.00225,9.327,85.0,10.88,49.58
-0.158,0.9505,9.319,85.0,10.88,49.72
0.112,0.97375,9.309,85.0,10.88,49.88
-0.087,0.963375,9.299,85.0,10.88,50.01
0.001,0.9815,9.289,85.0,10.88,50.13
0.249,0.919375,9.279,89.0,10.88,50.25
0.106,0.91425,9.27,89.0,10.88,50.35
-0.116,0.922,9.259,89.0,10.88,50.49
-0.111,0.8805,9.247,89.0,10.88,50.62
-0.101,0.862375,9.237,89.0,10.88,50.69
-0.051,0.91675,9.227,89.0,10.88,50.74
-0.151,0.85725,9.215,89.0,10.88,50.81
0.134,0.91675,9.205,89.0,10.88,50.89
-0.116,0.963375,9.195,89.0,10.88,50.94
-0.015,0.932375,9.185,89.0,10.88,50.96
0.208,1.020375,9.175,89.0,10.88,50.94
0.185,0.955625,9.164,89.0,10.88,50.9
-0.105,0.999625,9.153,91.0,10.88,50.86
-0.107,0.95825,9.144,91.0,10.88,50.88
-0.1,0.9375,9.134,91.0,10.88,50.85
-0.043,0.9245,9.124,91.0,10.88,50.79
-0.131,0.934875,9.115,91.0,10.88,50.74
0.182,0.95825,9.105,91.0,10.88,50.68
-0.145,0.883125,9.098,91.0,10.88,50.61
-0.029,0.8805,9.088,91.0,10.88,50.5
0.159,0.85975,9.081,91.0,10.88,50.4
0.279,0.940125,9.072,91.0,10.88,50.25
-0.074,0.947875,9.063,91.0,10.88,50.12
-0.102,0.9375,9.056,90.0,10.88,50.0
-0.089,0.934875,9.047,90.0,10.88,49.88
-0.074,0.984125,9.04,90.0,10.88,49.69
-0.04,0.968625,9.032,90.0,10.88,49.5
-0.139,1.01,9.025,90.0,10.88,49.31
0.171,1.007375,9.017,90.0,10.88,49.13
-0.053,0.991875,9.011,90.0,10.88,48.97
0.035,0.906375,9.005,90.0,10.88,48.8
0.3,0.909,8.998,90.0,10.88,48.63
0.137,0.9375,8.993,90.0,10.88,48.48
-0.078,0.909,8.985,88.0,10.88,48.34
-0.07,0.877875,8.979,88.0,10.88,48.22
-0.065,0.883125,8.973,88.0,10.88,48.06
-0.033,0.95825,8.966,88.0,10.88,47.89
-0.036,0.896125,8.96,88.0,10.88,47.77
-0.115,0.85975,8.955,88.0,10.88,47.67
0.196,0.927125,8.95,88.0,10.88,47.57
-0.027,0.88575,8.945,88.0,10.88,47.48
0.085,0.940125,8.939,88.0,10.88,47.38
0.358,0.971125,8.933,88.0,10.88,47.28
0.079,0.999625,8.928,88.0,10.88,47.19
-0.06,0.999625,8.923,85.0,10.88,47.15
-0.052,0.940125,8.918,85.0,10.88,47.08
-0.052,0.963375,8.913,85.0,10.88,47.0
-0.012,0.968625,8.908,85.0,10.88,46.92
-0.04,0.963375,8.905,85.0,10.88,46.88
-0.072,0.955625,8.901,85.0,10.88,46.82
0.167,0.846875,8.896,85.0,10.88,46.8
-0.015,0.85725,8.891,85.0,10.88,46.81
0.11,0.932375,8.886,85.0,10.88,46.82
0.363,0.88825,8.883,85.0,10.88,46.81
0.046,0.934875,8.878,85.0,10.88,46.83
-0.061,0.903875,8.873,85.0,10.88,46.86
-0.052,0.9245,8.871,85.0,10.88,46.88
-0.058,0.999625,8.866,85.0,10.88,46.88
-0.006,0.968625,8.862,85.0,10.88,46.9
-0.074,0.971125,8.858,85.0,10.88,47.01
0.114,0.940125,8.856,85.0,10.88,47.17
-0.046,0.898625,8.852,85.0,10.88,47.36
-0.013,0.927125,8.848,85.0,10.88,47.54
0.141,0.963375,8.846,85.0,10.88,47.76
0.323,0.963375,8.843,85.0,10.88,47.95
-0.036,0.877875,8.84,85.0,10.88,48.15
-0.088,0.82875,8.837,85.0,10.88,48.37
-0.082,0.919375,8.835,85.0,10.88,48.57
-0.048,0.896125,8.831,85.0,10.88,48.72
-0.078,0.922,8.829,85.0,10.88,48.86
-0.118,0.97375,8.826,85.0,10.88,49.05
0.11,0.9505,8.824,85.0,10.88,49.25
-0.054,0.97375,8.82,85.0,10.88,49.42
0.07,0.976375,8.818,85.0,10.88,49.61
0.311,1.023,8.815,91.0,10.88,49.87
-0.01,0.997125,8.813,91.0,10.88,50.05
-0.112,0.909,8.811,91.0,10.88,50.23
-0.1,0.942625,8.808,91.0,10.88,50.39
-0.059,0.8935,8.806,91.0,10.88,50.49
-0.101,0.966,8.805,91.0,10.88,50.55
-0.1,0.903875,8.803,91.0,10.88,50.68
0.08,0.88825,8.803,91.0,10.88,50.86
-0.056,0.854625,8.8,91.0,10.88,51.01
0.079,0.932375,8.8,91.0,10.88,51.12
0.312,0.932375,8.798,93.0,10.88,51.18
-0.024,0.942625,8.798,93.0,10.88,51.19
-0.103,0.947875,8.796,93.0,10.88,51.2
-0.09,0.934875,8.795,93.0,10.88,51.21
-0.042,0.97375,8.795,93.0,10.88,51.09
-0.087,0.98675,8.794,93.0,10.88,50.99
-0.056,1.01775,8.793,93.0,10.88,50.88
0.092,0.9815,8.793,93.0,10.88,50.76
-0.035,0.9375,8.79,93.0,10.88,50.58
0.112,0.940125,8.79,93.0,10.88,50.42
0.34,0.95825,8.788,93.0,10.88,50.24
-0.013,1.007375,8.786,93.0,10.88,50.03
-0.084,0.88575,8.784,93.0,10.88,49.82
-0.073,0.831375,8.783,93.0,10.88,49.59
-0.033,0.903875,8.78,93.0,10.88,49.34
-0.042,0.890875,8.779,93.0,10.88,49.05
-0.12,0.896125,8.776,93.0,10.88,48.81
0.196,0.966,8.774,93.0,10.88,48.61
-0.027,0.91675,8.773,93.0,10.88,48.42
0.098,0.95825,8.77,93.0,10.88,48.26
0.369,0.96075,8.768,93.0,10.88,48.11
0.058,1.00225,8.768,93.0,10.88,47.96
-0.063,0.98675,8.768,91.0,10.88,47.84
-0.052,0.911625,8.768,91.0,10.88,47.74
-0.034,0.911625,8.768,91.0,10.88,47.59
0.012,0.942625,8.771,91.0,10.88,47.45
-0.098,0.932375,8.774,91.0,10.88,47.34
0.174,0.87275,8.78,91.0,10.88,47.25
-0.029,0.898625,8.786,91.0,10.88,47.18
0.048,0.88825,8.794,91.0,10.88,47.14
0.3,0.898625,8.802,91.0,10.88,47.09
0.198,0.8935,8.811,91.0,10.88,47.04
-0.059,0.940125,8.82,90.0,10.88,47.03
-0.06,0.953,8.831,90.0,10.88,47.03
-0.056,0.947875,8.842,90.0,10.88,46.98
-0.069,0.947875,8.853,90.0,10.88,46.93
-0.081,0.976375,8.864,90.0,10.88,46.91
-0.044,1.043625,8.874,90.0,10.88,46.9
0.126,0.96075,8.884,90.0,10.88,46.91
-0.015,0.932375,8.894,90.0,10.88,46.91
0.121,0.883125,8.911,90.0,10.88,46.9
0.359,0.932375,8.911,90.0,10.88,46.9
0.012,0.96075,8.918,90.0,10.88,46.88
-0.068,0.88825,8.925,87.0,10.88,46.92
-0.06,0.841625,8.931,87.0,10.88,46.93
-0.061,0.865,8.938,87.0,10.88,46.9
0.005,0.8935,8.943,87.0,10.88,46.84
-0.1,0.875375,8.945,87.0,10.88,46.85
0.186,0.9505,8.95,87.0,10.88,46.85
-0.104,0.88825,8.953,87.0,10.88,46.85
0.004,0.976375,8.957,87.0,10.88,46.88
0.205,0.896125,8.958,87.0,10.88,46.88
0.275,0.92975,8.959,87.0,10.88,46.83
-0.055,0.95825,8.96,87.0,10.88,46.85
-0.071,0.906375,8.962,87.0,10.88,46.88
-0.06,0.976375,8.962,87.0,10.88,46.87
-0.056,0.98925,8.962,87.0,10.88,46.83
-0.01,0.940125,8.96,87.0,10.88,46.8
-0.115,0.898625,8.959,87.0,10.88,46.81
0.145,0.846875,8.958,87.0,10.88,46.79
-0.05,0.833875,8.957,87.0,10.88,46.79
0.027,0.896125,8.953,87.0,10.88,46.83
0.268,0.896125,8.95,87.0,10.88,46.86
0.168,0.9505,8.947,87.0,10.88,46.85
-0.085,0.911625,8.943,86.0,10.88,46.91
-0.088,0.9375,8.939,86.0,10.88,46.99
-0.081,0.999625,8.935,86.0,10.88,47.08
-0.058,1.033375,8.93,86.0,10.88,47.18
-0.078,1.00225,8.925,86.0,10.88,47.31
-0.131,0.978875,8.921,86.0,10.88,47.46
0.119,0.909,8.916,86.0,10.88,47.62
-0.06,0.9375,8.908,86.0,10.88,47.77
0.058,0.9945,8.903,86.0,10.88,47.92
0.297,0.984125,8.897,87.0,10.88,48.09
-0.009,0.896125,8.891,87.0,10.88,48.26
-0.118,0.883125,8.883,87.0,10.88,48.46
-0.107,0.88575,8.878,87.0,10.88,48.65
-0.095,0.922,8.871,87.0,10.88,48.79
-0.075,0.903875,8.866,87.0,10.88,48.92
-0.171,0.9505,8.858,87.0,10.88,49.08
0.095,0.953,8.852,87.0,10.88,49.25
-0.097,0.953,8.844,87.0,10.88,49.41
-0.007,0.91425,8.838,87.0,10.88,49.57
0.241,0.98925,8.832,89.0,10.88,49.71
0.066,0.971125,8.827,89.0,10.88,49.73
-0.136,0.96075,8.821,89.0,10.88,49.81
-0.133,0.947875,8.815,89.0,10.88,49.99
-0.112,0.9505,8.809,89.0,10.88,50.13
-0.086,1.01,8.804,89.0,10.88,50.28
-0.182,0.9245,8.796,89.0,10.88,50.42
0.096,0.927125,8.791,89.0,10.88,50.58
-0.103,0.88825,8.786,89.0,10.88,50.74
-0.008,0.875375,8.779,89.0,10.88,50.89
0.247,0.911625,8.774,93.0,10.88,51.06
0.062,0.953,8.769,93.0,10.88,51.2
-0.142,0.9505,8.762,93.0,10.88,51.35
-0.138,0.9245,8.757,93.0,10.88,51.5
-0.107,0.94525,8.753,93.0,10.88,51.61
-0.1,0.9945,8.746,93.0,10.88,51.7
-0.192,0.999625,8.742,93.0,10.88,51.82
0.125,0.968625,8.738,93.0,10.88,51.94
-0.099,0.919375,8.734,93.0,10.88,52.07
0.011,0.96075,8.729,93.0,10.88,52.18
-0.008,0.97375,8.724,94.0,10.88,52.35
-0.082,0.95825,8.719,94.0,10.88,52.48
-0.154,0.865,8.714,94.0,10.88,52.57
-0.149,0.805375,8.712,94.0,10.88,52.69
-0.121,0.90125,8.707,94.0,10.88,52.76
-0.103,0.883125,8.699,94.0,10.88,52.94
-0.2,0.8935,8.698,94.0,10.88,52.95
0.132,0.968625,8.694,94.0,10.88,53.07
-0.11,0.927125,8.691,94.0,10.88,53.22
0.001,0.963375,8.687,94.0,10.88,53.37
0.289,0.9375,8.684,93.0,10.88,53.52
0.009,1.01775,8.681,93.0,10.88,53.65
-0.162,0.991875,8.677,93.0,10.88,53.73
-0.154,0.96075,8.674,93.0,10.88,53.83
-0.128,0.9505,8.672,93.0,10.88,53.88
-0.072,0.90125,8.671,93.0,10.88,53.9
-0.177,0.9505,8.668,93.0,10.88,53.96
0.147,0.91425,8.668,93.0,10.88,53.98
-0.102,0.854625,8.668,93.0,10.88,53.86
-0.005,0.865,8.668,93.0,10.88,53.73
0.258,0.875375,8.668,93.0,10.88,53.56
0.179,0.877875,8.668,93.0,10.88,53.3
-0.1,0.934875,8.671,90.0,10.88,52.99
-0.1,0.942625,8.671,90.0,10.88,52.68
-0.084,0.883125,8.673,90.0,10.88,52.37
-0.059,0.9815,8.673,90.0,10.88,52.05
-0.037,0.96075,8.676,90.0,10.88,51.72
-0.126,1.048875,8.676,90.0,10.88,51.37
0.219,0.9375,8.678,90.0,10.88,51.03
0.063,0.927125,8.681,90.0,10.88,50.7
0.125,0.947875,8.682,90.0,10.88,50.39
0.361,0.94525,8.683,90.0,10.88,50.0
0.124,0.919375,8.686,90.0,10.88,49.69
-0.055,0.88575,8.689,86.0,10.88,49.47
-0.045,0.818375,8.697,86.0,10.88,48.99
-0.035,0.862375,8.697,86.0,10.88,48.95
-0.035,0.877875,8.702,86.0,10.88,48.69
0.031,0.8805,8.707,86.0,10.88,48.48
-0.069,0.98675,8.714,86.0,10.88,48.35
0.235,0.877875,8.722,86.0,10.88,48.25
-0.028,0.91675,8.729,86.0,10.88,48.09
0.054,0.984125,8.737,86.0,10.88,47.91
0.277,1.01775,8.745,86.0,10.88,47.73
0.302,1.00225,8.755,86.0,10.88,47.58
-0.028,0.940125,8.764,86.0,10.88,47.45
-0.041,0.999625,8.772,82.0,10.88,47.35
-0.034,0.934875,8.782,82.0,10.88,47.23
-0.043,0.978875,8.79,82.0,10.88,47.11
-0.023,0.947875,8.8,82.0,10.88,47.03
-0.003,0.88825,8.807,82.0,10.88,46.98
-0.091,0.932375,8.816,82.0,10.88,46.95
0.218,0.940125,8.824,82.0,10.88,46.93
-0.006,0.911625,8.831,82.0,10.88,46.92
0.091,0.91425,8.836,82.0,10.88,46.87
0.362,1.0385,8.843,82.0,10.88,46.85
0.134,0.95825,8.848,82.0,10.88,46.84
-0.053,0.934875,8.853,79.0,10.88,46.83
-0.049,0.919375,8.858,79.0,10.88,46.82
-0.046,1.0385,8.863,79.0,10.88,46.79
-0.055,0.98925,8.868,79.0,10.88,46.76
0.01,1.00225,8.873,79.0,10.88,46.76
0.209,0.971125,8.881,79.0,10.88,46.76
0.169,0.953,8.889,79.0,10.88,46.79
-0.082,0.955625,8.899,79.0,10.88,46.82
0.018,0.896125,8.911,89.0,10.88,46.82
0.217,0.85975,8.923,89.0,10.88,46.79
0.281,0.8935,8.949,89.0,10.88,46.8
-0.054,0.862375,8.95,89.0,10.88,46.8
-0.07,0.883125,8.965,89.0,10.88,46.85
-0.06,0.9375,8.983,89.0,10.88,46.83
-0.073,0.9505,8.999,89.0,10.88,46.8
-0.026,0.909,9.015,89.0,10.88,46.77
-0.071,0.953,9.032,89.0,10.88,46.76
-0.028,0.999625,9.05,89.0,10.88,46.75
0.069,0.997125,9.065,89.0,10.88,46.78
-0.037,0.919375,9.081,89.0,10.88,46.85
0.098,0.95825,9.097,89.0,10.88,46.96
0.326,0.953,9.11,89.0,10.88,47.07
-0.026,0.976375,9.124,89.0,10.88,47.24
-0.113,0.91675,9.137,118.0,10.88,47.44
-0.106,0.867625,9.148,118.0,10.88,47.62
-0.108,0.870125,9.158,118.0,10.88,47.76
-0.062,0.87275,9.168,118.0,10.88,47.94
-0.166,0.92975,9.177,118.0,10.88,48.15
0.094,0.90125,9.183,118.0,10.88,48.37
-0.137,0.940125,9.189,118.0,10.88,48.58
-0.045,0.966,9.194,118.0,10.88,48.8
0.173,0.8935,9.196,87.0,10.88,49.03
0.14,0.968625,9.199,87.0,10.88,49.21
-0.15,1.01525,9.2,87.0,10.88,49.43
-0.156,0.971125,9.2,87.0,10.88,49.64
-0.146,0.940125,9.2,87.0,10.88,49.78
-0.095,0.98925,9.199,87.0,10.88,49.89
-0.198,0.92975,9.198,87.0,10.88,50.0
0.082,0.940125,9.194,87.0,10.88,50.13
-0.167,0.875375,9.19,87.0,10.88,50.25
-0.06,0.896125,9.186,87.0,10.88,50.34
0.161,0.8365,9.182,93.0,10.88,50.39
0.142,0.875375,9.177,93.0,10.88,50.34
-0.154,0.9245,9.169,93.0,10.88,50.3
-0.158,0.940125,9.163,93.0,10.88,50.37
-0.14,0.94525,9.157,93.0,10.88,50.44
-0.095,0.9245,9.148,93.0,10.88,50.47
-0.196,0.947875,9.14,93.0,10.88,50.5
0.077,1.03075,9.132,93.0,10.88,50.53
-0.147,0.966,9.123,93.0,10.88,50.57
-0.049,0.934875,9.113,93.0,10.88,50.65
0.191,0.953,9.103,93.0,10.88,50.76
0.114,0.919375,9.093,93.0,10.88,50.81
-0.154,0.978875,9.083,93.0,10.88,50.84
-0.156,0.896125,9.073,93.0,10.88,50.85
-0.128,0.818375,9.063,93.0,10.88,50.84
-0.088,0.839125,9.052,93.0,10.88,50.82
-0.187,0.909,9.042,93.0,10.88,50.85
0.111,0.877875,9.031,93.0,10.88,50.88
-0.105,0.942625,9.021,93.0,10.88,50.84
-0.005,0.984125,9.011,93.0,10.88,50.77
0.263,0.947875,9.001,94.0,10.88,50.67
0.082,0.9375,8.993,94.0,10.88,50.56
-0.125,0.903875,8.985,94.0,10.88,50.41
-0.119,0.97375,8.978,94.0,10.88,50.23
-0.098,1.007375,8.975,94.0,10.88,49.98
-0.038,0.9375,8.972,94.0,10.88,49.72
-0.143,0.963375,8.972,94.0,10.88,49.47
0.164,0.947875,8.974,94.0,10.88,49.24
-0.095,0.95825,8.978,94.0,10.88,49.04
0.002,0.867625,8.985,94.0,10.88,48.85
0.243,0.88575,8.993,94.0,10.88,48.68
0.217,0.85975,9.004,94.0,10.88,48.52
-0.084,0.870125,9.013,91.0,10.88,48.38
-0.088,0.88825,9.026,91.0,10.88,48.27
-0.076,0.947875,9.038,91.0,10.88,48.15
-0.028,0.92975,9.052,91.0,10.88,47.97
-0.065,0.88825,9.065,91.0,10.88,47.78
-0.076,0.9505,9.077,91.0,10.88,47.63
0.137,0.997125,9.088,91.0,10.88,47.52
-0.033,1.08,9.098,91.0,10.88,47.41
0.105,0.9945,9.108,91.0,10.88,47.3
0.356,0.963375,9.117,91.0,10.88,47.18
-0.005,0.96075,9.124,91.0,10.88,47.08
-0.089,0.9945,9.132,88.0,10.88,47.05
-0.082,0.922,9.137,88.0,10.88,47.01
-0.08,0.867625,9.142,88.0,10.88,46.93
-0.022,0.8495,9.143,88.0,10.88,46.84
-0.094,0.932375,9.146,88.0,10.88,46.78
0.105,0.88825,9.147,88.0,10.88,46.75
-0.051,0.90125,9.147,88.0,10.88,46.73
-0.027,0.927125,9.146,88.0,10.88,46.75
0.137,0.942625,9.144,88.0,10.88,46.72
0.317,0.947875,9.142,88.0,10.88,46.69
-0.053,0.96075,9.139,88.0,10.88,46.69
-0.097,1.05925,9.136,85.0,10.88,46.72
-0.086,0.984125,9.132,85.0,10.88,46.71
-0.089,0.9245,9.127,85.0,10.88,46.68
-0.05,0.966,9.122,85.0,10.88,46.68
-0.081,0.9505,9.117,85.0,10.88,46.7
-0.089,0.927125,9.112,85.0,10.88,46.73
0.114,0.934875,9.104,85.0,10.88,46.74
-0.048,0.867625,9.099,85.0,10.88,46.77
0.082,0.877875,9.092,85.0,10.88,46.79
0.328,0.896125,9.085,85.0,10.88,46.82
-0.018,0.94525,9.078,85.0,10.88,46.9
-0.109,0.922,9.071,83.0,10.88,46.98
-0.1,0.91425,9.065,83.0,10.88,47.06
-0.103,0.942625,9.057,83.0,10.88,47.12
-0.088,0.911625,9.051,83.0,10.88,47.21
-0.08,1.01525,9.045,83.0,10.88,47.38
-0.164,1.007375,9.038,83.0,10.88,47.66
0.126,0.966,9.032,83.0,10.88,47.98
-0.083,0.947875,9.027,83.0,10.88,48.17
0.018,0.96075,9.022,83.0,10.88,48.34
0.277,0.955625,9.017,83.0,10.88,48.51
0.012,0.903875,9.012,83.0,10.88,48.69
-0.142,0.8935,9.008,83.0,10.88,48.91
-0.133,0.852,9.003,83.0,10.88,49.09
-0.134,0.911625,8.998,83.0,10.88,49.22
-0.079,0.9245,8.995,83.0,10.88,49.36
-0.173,0.9375,8.99,83.0,10.88,49.55
0.127,0.934875,8.988,83.0,10.88,49.74
-0.198,0.96075,8.984,83.0,10.88,49.91
-0.067,0.966,8.983,83.0,10.88,50.1
0.125,0.978875,8.98,88.0,10.88,50.28
0.206,0.9945,8.978,88.0,10.88,50.44
-0.133,0.934875,8.977,88.0,10.88,50.66
-0.154,0.940125,8.974,88.0,10.88,50.91
-0.141,0.932375,8.974,88.0,10.88,51.05
-0.096,0.91425,8.972,88.0,10.88,51.14
-0.15,0.92975,8.97,88.0,10.88,51.24
-0.038,0.95825,8.969,88.0,10.88,51.36
-0.025,0.854625,8.968,88.0,10.88,51.48
-0.077,0.8365,8.967,88.0,10.88,51.56
0.08,0.854625,8.964,88.0,10.88,51.66
0.287,0.8805,8.962,88.0,10.88,51.75
-0.1,0.85975,8.959,88.0,10.88,51.82
-0.134,0.846875,8.958,90.0,10.88,51.85
-0.12,0.896125,8.954,90.0,10.88,51.86
-0.09,0.94525,8.95,90.0,10.88,51.79
-0.09,0.984125,8.947,90.0,10.88,51.73
-0.166,1.004875,8.94,90.0,10.88,51.63
0.156,0.9945,8.939,90.0,10.88,51.62
-0.069,0.98675,8.935,90.0,10.88,51.54
0.049,0.91425,8.93,90.0,10.87,51.49
0.326,0.91425,8.925,90.0,10.88,51.41
0.026,0.909,8.921,90.0,10.88,51.32
-0.107,0.911625,8.916,90.0,10.88,51.22
-0.096,0.85725,8.911,90.0,10.88,51.15
-0.087,0.852,8.906,90.0,10.87,50.97
-0.023,0.903875,8.901,90.0,10.88,50.76
-0.122,0.919375,8.897,90.0,10.87,50.55
0.207,0.9505,8.895,90.0,10.87,50.3
-0.126,0.911625,8.895,90.0,10.87,50.03
-0.004,0.9505,8.895,90.0,10.88,49.77
0.206,0.97375,8.898,90.0,10.87,49.52
0.274,1.01525,8.907,90.0,10.87,49.28
-0.065,0.968625,8.918,90.0,10.87,49.1
-0.081,0.95825,8.935,88.0,10.88,48.95
-0.065,0.98675,8.957,88.0,10.87,48.76
-0.057,0.942625,8.981,88.0,10.87,48.54
0.005,0.999625,9.012,88.0,10.87,48.37
-0.095,0.896125,9.047,88.0,10.87,48.22
0.203,0.839125,9.086,88.0,10.88,48.11
-0.04,0.852,9.127,88.0,10.88,48.04
0.044,0.906375,9.169,88.0,10.87,47.96
0.282,0.922,9.214,88.0,10.87,47.85
0.264,0.927125,9.259,88.0,10.87,47.7
-0.045,0.947875,9.303,88.0,10.87,47.59
-0.051,0.903875,9.348,85.0,10.87,47.49
-0.043,0.8805,9.389,85.0,10.87,47.35
-0.05,0.966,9.432,85.0,10.88,47.18
0.019,1.01525,9.471,85.0,10.87,47.08
-0.072,0.919375,9.51,85.0,10.88,47.01
0.219,0.927125,9.544,85.0,10.87,46.98
-0.083,0.9245,9.578,85.0,10.87,46.93
0.018,0.94525,9.607,85.0,10.87,46.89
0.212,0.978875,9.634,85.0,10.88,46.85
0.328,0.865,9.658,85.0,10.87,46.82
-0.032,0.870125,9.68,85.0,10.88,46.81
-0.057,0.8365,9.7,82.0,10.87,46.76
-0.049,0.867625,9.717,82.0,10.87,46.71
-0.056,0.922,9.731,82.0,10.87,46.69
0.0,0.934875,9.744,82.0,10.87,46.66
-0.061,0.940125,9.757,82.0,10.87,46.64
0.086,0.898625,9.764,82.0,10.88,46.66
0.01,0.92975,9.772,82.0,10.87,46.73
-0.009,0.942625,9.777,82.0,10.87,46.77
0.148,0.9375,9.78,82.0,10.87,46.8
0.345,0.966,9.78,82.0,10.87,46.77
-0.023,0.942625,9.78,82.0,10.87,46.8
-0.081,0.942625,9.776,83.0,10.87,46.83
-0.075,0.953,9.771,83.0,10.87,46.91
-0.082,0.90125,9.763,83.0,10.87,46.96
-0.03,0.883125,9.754,83.0,10.87,47.02
-0.101,0.854625,9.744,83.0,10.87,47.11
0.112,0.846875,9.733,83.0,10.87,47.23
-0.085,0.9245,9.72,83.0,10.87,47.39
-0.034,0.92975,9.705,83.0,10.87,47.55
0.129,0.953,9.675,83.0,10.87,47.95
0.294,0.927125,9.674,83.0,10.87,47.97
-0.072,0.896125,9.655,83.0,10.87,48.15
-0.115,1.01525,9.636,85.0,10.87,48.36
-0.105,1.03075,9.617,85.0,10.87,48.55
-0.096,0.971125,9.596,85.0,10.87,48.71
-0.072,0.984125,9.576,85.0,10.87,48.85
-0.169,0.947875,9.553,85.0,10.87,49.02
0.105,0.963375,9.532,85.0,10.88,49.22
-0.091,0.9245,9.51,85.0,10.88,49.41
0.0,0.8805,9.487,85.0,10.87,49.58
0.257,0.883125,9.465,88.0,10.88,49.72
0.062,0.846875,9.444,88.0,10.87,49.88
-0.137,0.867625,9.422,88.0,10.87,50.05
-0.135,0.909,9.4,88.0,10.87,50.23
-0.118,0.934875,9.379,88.0,10.87,50.34
-0.079,0.96075,9.359,88.0,10.87,50.45
-0.174,0.91675,9.34,88.0,10.87,50.57
0.097,0.976375,9.32,88.0,10.87,50.71
-0.112,1.01525,9.3,88.0,10.87,50.83
-0.018,0.976375,9.28,88.0,10.87,50.94
0.232,0.96075,9.263,91.0,10.88,51.04
0.114,1.054,9.244,91.0,10.87,51.16
-0.137,0.9375,9.226,91.0,10.87,51.28
-0.138,0.898625,9.209,91.0,10.87,51.41
-0.115,0.8935,9.193,91.0,10.87,51.52
-0.081,0.896125,9.177,91.0,10.87,51.58
-0.181,0.841625,9.162,91.0,10.87,51.65
0.109,0.8495,9.147,91.0,10.87,51.75
-0.105,0.896125,9.133,91.0,10.87,51.83
-0.008,0.919375,9.119,91.0,10.87,51.93
0.263,0.94525,9.107,93.0,10.87,52.02
0.095,0.9245,9.094,93.0,10.87,52.07
-0.123,0.922,9.083,93.0,10.87,52.09
-0.121,0.953,9.071,93.0,10.87,52.17
-0.101,1.04625,9.061,93.0,10.87,52.18
-0.047,0.942625,9.05,93.0,10.87,52.18
-0.149,0.96075,9.04,93.0,10.87,52.25
0.163,0.98675,9.031,93.0,10.87,52.31
-0.101,0.92975,9.022,93.0,10.87,52.41
0.001,0.934875,9.015,93.0,10.87,52.45
0.252,0.906375,9.008,93.0,10.87,52.47
0.191,0.90125,9.003,93.0,10.87,52.45
-0.094,0.831375,8.999,91.0,10.87,52.4
-0.099,0.91675,8.997,91.0,10.87,52.31
-0.082,0.971125,8.997,91.0,10.87,52.13
-0.036,0.968625,8.999,91.0,10.87,51.95
-0.07,0.934875,9.003,91.0,10.87,51.77
-0.055,0.91675,9.01,91.0,10.87,51.59
0.153,0.971125,9.018,91.0,10.87,51.38
-0.016,1.012625,9.028,91.0,10.87,51.12
0.133,1.007375,9.041,91.0,10.87,50.87
0.381,0.966,9.055,91.0,10.87,50.67
0.011,0.94525,9.067,91.0,10.87,50.45
-0.068,0.953,9.082,88.0,10.87,50.2
-0.055,0.947875,9.096,88.0,10.87,49.96
-0.052,0.919375,9.109,88.0,10.87,49.68
-0.005,0.9245,9.122,88.0,10.87,49.42
-0.042,0.826125,9.133,88.0,10.87,49.23
-0.016,0.839125,9.143,88.0,10.87,49.06
0.178,0.94525,9.153,88.0,10.87,48.89
0.009,0.94525,9.16,88.0,10.87,48.73
0.153,0.9375,9.168,88.0,10.87,48.61
0.402,0.862375,9.174,88.0,10.87,48.54
0.032,0.898625,9.179,88.0,10.87,48.49
-0.047,1.020375,9.182,84.0,10.87,48.41
-0.037,0.942625,9.184,84.0,10.87,48.26
-0.036,0.934875,9.185,84.0,10.87,48.08
-0.028,0.991875,9.188,84.0,10.87,47.94
0.023,0.976375,9.188,84.0,10.87,47.83
-0.072,0.919375,9.188,84.0,10.87,47.76
0.22,0.947875,9.185,84.0,10.87,47.68
-0.002,0.883125,9.184,84.0,10.87,47.58
0.069,0.88575,9.182,84.0,10.87,47.48
0.319,0.85975,9.178,84.0,10.87,47.39
0.239,0.91425,9.174,84.0,10.87,47.33
-0.041,0.997125,9.169,80.0,10.87,47.29
-0.044,0.978875,9.164,80.0,10.87,47.21
-0.038,0.922,9.159,80.0,10.87,47.1
-0.048,0.96075,9.154,80.0,10.87,46.97
-0.007,0.942625,9.149,80.0,10.87,46.9
-0.029,1.01,9.144,80.0,10.87,46.86
-0.073,0.991875,9.139,80.0,10.87,46.85
0.194,1.007375,9.134,80.0,10.87,46.83
-0.008,0.9375,9.131,80.0,10.87,46.82
0.113,0.963375,9.127,80.0,10.87,46.81
0.377,0.940125,9.123,80.0,10.87,46.79
0.042,0.940125,9.119,80.0,10.87,46.8
-0.072,0.927125,9.117,80.0,10.87,46.82
-0.067,0.805375,9.113,80.0,10.87,46.82
-0.067,0.818375,9.109,80.0,10.87,46.79
-0.077,0.91675,9.107,80.0,10.87,46.74
-0.006,0.940125,9.103,80.0,10.87,46.72
-0.092,0.94525,9.099,80.0,10.87,46.73
0.201,0.919375,9.096,80.0,10.87,46.76
-0.095,0.966,9.092,80.0,10.87,46.78
0.006,0.97375,9.087,80.0,10.87,46.76
0.194,0.971125,9.082,80.0,10.87,46.76
0.04,0.966,9.077,80.0,10.87,46.78
-0.074,0.9815,9.071,79.0,10.87,46.82
-0.084,0.94525,9.065,79.0,10.87,46.9
-0.075,0.932375,9.058,79.0,10.87,46.97
-0.085,0.9245,9.052,79.0,10.87,47.05
-0.047,0.909,9.038,79.0,10.87,47.26
-0.084,0.877875,9.037,79.0,10.87,47.28
-0.029,0.87275,9.03,79.0,10.87,47.45
0.047,0.875375,9.023,79.0,10.87,47.64
-0.046,0.90125,9.016,79.0,10.87,47.84
0.092,0.919375,9.009,79.0,10.87,48.02
0.312,0.909,9.001,79.0,10.87,48.19
-0.041,0.906375,8.994,79.0,10.87,48.38
-0.116,0.963375,8.986,83.0,10.87,48.63
-0.109,0.968625,8.978,83.0,10.87,48.85
-0.102,0.971125,8.97,83.0,10.87,49.02
-0.065,0.966,8.963,83.0,10.87,49.2
-0.165,0.947875,8.955,83.0,10.87,49.43
0.095,0.9505,8.949,83.0,10.87,49.63
-0.104,0.947875,8.941,83.0,10.87,49.81
-0.018,0.91675,8.935,83.0,10.85,50.0
0.232,0.903875,8.928,88.0,10.85,50.2
0.103,0.846875,8.921,88.0,10.85,50.39
-0.138,0.87275,8.913,88.0,10.85,50.59
-0.139,0.903875,8.907,88.0,10.85,50.79
-0.126,0.95825,8.901,88.0,10.85,50.96
-0.075,0.97375,8.893,88.0,10.85,51.07
-0.173,0.940125,8.887,88.0,10.85,51.13
0.109,0.90125,8.881,88.0,10.85,51.19
-0.127,0.91425,8.873,88.0,10.85,51.28
-0.023,0.9815,8.866,88.0,10.85,51.37
0.215,0.966,8.858,91.0,10.85,51.37
0.158,0.999625,8.853,91.0,10.85,51.3
-0.118,0.997125,8.846,91.0,10.85,51.23
-0.119,0.9815,8.838,91.0,10.85,51.18
-0.107,0.92975,8.833,91.0,10.85,51.07
-0.042,0.927125,8.826,91.0,10.85,50.9
-0.132,0.898625,8.821,91.0,10.85,50.76
0.187,0.88575,8.814,91.0,10.85,50.63
-0.148,0.865,8.807,91.0,10.85,50.46
-0.026,0.922,8.801,91.0,10.85,50.24
0.172,0.903875,8.795,91.0,10.85,49.98
0.272,0.922,8.789,91.0,10.85,49.69
-0.08,0.90125,8.784,91.0,10.85,49.44
-0.106,0.940125,8.779,90.0,10.85,49.21
-0.091,0.940125,8.773,90.0,10.85,48.96
-0.057,0.984125,8.767,90.0,10.85,48.66
-0.056,0.968625,8.764,90.0,10.85,48.41
-0.142,0.999625,8.759,90.0,10.85,48.23
0.179,0.932375,8.755,90.0,10.85,48.1
-0.054,0.9505,8.751,90.0,10.85,47.95
0.059,0.927125,8.749,90.0,10.85,47.83
0.334,0.909,8.745,90.0,10.85,47.73
0.027,0.852,8.743,90.0,10.85,47.65
-0.115,0.942625,8.741,89.0,10.85,47.52
-0.11,0.919375,8.739,89.0,10.85,47.4
-0.104,0.903875,8.737,89.0,10.85,47.25
-0.049,0.953,8.736,89.0,10.85,47.13
-0.115,0.896125,8.733,89.0,10.85,47.06
0.023,0.92975,8.732,89.0,10.85,46.99
-0.019,0.95825,8.731,89.0,10.85,46.95
-0.054,0.991875,8.728,89.0,10.85,46.93
0.102,0.984125,8.728,86.0,10.85,46.89
0.299,1.048875,8.728,86.0,10.85,46.87
-0.072,0.963375,8.728,86.0,10.85,46.86
-0.123,0.90125,8.728,86.0,10.85,46.86
-0.113,0.919375,8.728,86.0,10.85,46.83
-0.114,0.968625,8.729,86.0,10.85,46.79
-0.046,0.8805,8.732,86.0,10.85,46.75
-0.141,0.82875,8.736,86.0,10.85,46.75
0.15,0.867625,8.739,86.0,10.85,46.74
-0.153,0.90125,8.744,86.0,10.85,46.74
-0.045,0.934875,8.751,86.0,10.85,46.77
0.149,0.909,8.756,86.0,10.85,46.76
0.243,0.947875,8.762,86.0,10.85,46.73
-0.106,0.966,8.769,86.0,10.85,46.71
-0.129,0.953,8.775,86.0,10.85,46.74
-0.116,1.06175,8.782,86.0,10.85,46.75
-0.122,0.9505,8.789,86.0,10.85,46.75
-0.054,0.955625,8.795,86.0,10.85,46.76
-0.147,1.0385,8.801,86.0,10.85,46.82
0.142,0.9375,8.806,86.0,10.85,46.86
-0.161,0.927125,8.811,86.0,10.85,46.86
-0.047,0.955625,8.814,86.0,10.85,46.86
0.146,0.934875,8.816,84.0,10.85,46.84
0.229,0.81325,8.82,84.0,10.85,46.82
-0.111,0.8935,8.821,84.0,10.85,46.83
-0.131,0.898625,8.823,84.0,10.85,46.84
-0.12,0.88825,8.823,84.0,10.85,46.81
-0.128,0.883125,8.823,84.0,10.85,46.75
-0.078,0.9375,8.82,84.0,10.84,46.72
-0.115,0.96075,8.82,84.0,10.84,46.75
-0.077,0.96075,8.818,84.0,10.84,46.75
0.051,0.999625,8.815,84.0,10.85,46.75
-0.069,0.999625,8.813,84.0,10.84,46.76
0.074,0.955625,8.81,84.0,10.85,46.74
0.304,0.922,8.806,81.0,10.84,46.7
-0.048,0.932375,8.804,81.0,10.84,46.73
-0.123,0.919375,8.8,81.0,10.84,46.76
-0.112,0.9245,8.796,81.0,10.84,46.77
-0.112,0.82875,8.791,81.0,10.84,46.74
-0.099,0.870125,8.789,81.0,10.84,46.69
-0.067,0.903875,8.784,81.0,10.84,46.7
-0.16,0.919375,8.779,81.0,10.84,46.72
0.127,0.88575,8.774,81.0,10.84,46.76
-0.08,0.922,8.769,81.0,10.84,46.78
0.011,0.96075,8.765,81.0,10.84,46.8
0.277,0.955625,8.759,81.0,10.84,46.77
0.07,1.01,8.755,81.0,10.84,46.78
-0.124,0.991875,8.749,82.0,10.84,46.82
-0.122,0.96075,8.744,82.0,10.84,46.87
-0.115,0.984125,8.739,82.0,10.84,46.89
-0.116,0.903875,8.734,82.0,10.84,46.92
-0.068,0.919375,8.729,82.0,10.84,46.99
-0.163,0.88825,8.723,82.0,10.84,47.1
0.099,0.8235,8.717,82.0,10.84,47.25
-0.113,0.8235,8.712,82.0,10.84,47.42
-0.028,0.932375,8.707,82.0,10.84,47.59
0.198,0.898625,8.702,82.0,10.84,47.73
0.138,0.906375,8.694,82.0,10.84,47.89
-0.134,0.919375,8.689,82.0,10.84,48.1
-0.142,0.94525,8.684,82.0,10.84,48.3
-0.134,0.9815,8.679,82.0,10.84,48.46
-0.12,0.955625,8.673,82.0,10.84,48.58
-0.122,0.97375,8.667,82.0,10.84,48.76
-0.201,1.007375,8.662,82.0,10.84,48.97
0.082,1.004875,8.657,82.0,10.84,49.17
-0.112,0.953,8.652,82.0,10.84,49.36
0.0,0.898625,8.647,82.0,10.84,49.53
0.257,0.8935,8.642,87.0,10.84,49.69
-0.044,0.88825,8.637,87.0,10.84,49.85
-0.172,0.84425,8.634,87.0,10.84,50.0
-0.164,0.875375,8.63,87.0,10.84,50.17
-0.154,0.922,8.625,87.0,10.84,50.29
-0.122,0.927125,8.62,87.0,10.84,50.42
-0.221,0.883125,8.615,87.0,10.84,50.55
0.051,0.870125,8.612,87.0,10.84,50.68
-0.159,0.978875,8.607,87.0,10.84,50.81
-0.07,0.947875,8.602,87.0,10.84,50.93
0.178,0.9815,8.6,90.0,10.84,51.05
0.056,0.991875,8.595,90.0,10.84,51.15
-0.19,1.0385,8.592,90.0,10.84,51.26
-0.191,0.984125,8.587,90.0,10.84,51.37
-0.172,0.90125,8.584,90.0,10.84,51.45
-0.124,0.91675,8.58,90.0,10.84,51.49
-0.223,0.91425,8.577,90.0,10.84,51.54
0.072,0.8365,8.574,90.0,10.84,51.6
-0.181,0.8805,8.57,90.0,10.84,51.64
-0.073,0.934875,8.567,90.0,10.84,51.63
0.17,0.9245,8.563,91.0,10.84,51.55
0.115,0.94525,8.559,91.0,10.84,51.43
-0.166,0.92975,8.557,91.0,10.84,51.28
