ECG,EMG,foot GSR,hand GSR,HR,marker,RESP
0.14,0.249,1.937,4.003,78.0,11.38,35.5
-0.037,0.228,1.937,4.002,78.0,11.38,35.51
-0.043,0.228,1.934,4.001,78.0,11.38,35.49
-0.035,0.249,1.934,4.0,78.0,11.38,35.46
-0.046,0.249,1.934,3.997,78.0,11.38,35.35
-0.063,0.228,1.934,3.997,78.0,11.38,35.34
-0.076,0.228,1.934,3.995,78.0,11.38,35.38
-0.066,0.352,1.932,3.995,78.0,11.38,35.4
0.224,0.767,1.932,3.992,78.0,11.38,35.44
-0.042,0.249,1.933,3.991,78.0,11.38,35.45
-0.009,0.228,1.932,3.99,78.0,11.38,35.54
0.119,0.249,1.93,3.99,76.0,11.38,35.54
0.117,0.249,1.929,3.988,76.0,11.38,35.62
-0.032,0.269,1.929,3.987,76.0,11.38,35.72
-0.053,0.228,1.929,3.987,76.0,11.38,35.82
-0.044,0.269,1.928,3.985,76.0,11.38,35.87
-0.028,0.228,1.925,3.982,76.0,11.38,35.96
-0.044,0.29,1.925,3.982,76.0,11.38,35.96
-0.084,0.269,1.927,3.98,76.0,11.38,36.07
0.209,0.829,1.925,3.98,76.0,11.38,36.19
-0.058,0.331,1.924,3.978,76.0,11.38,36.3
-0.021,0.269,1.924,3.978,76.0,11.38,36.4
0.04,0.269,1.924,3.975,81.0,11.38,36.47
0.15,0.269,1.924,3.975,81.0,11.38,36.56
0.024,0.249,1.922,3.974,81.0,11.38,36.66
-0.053,0.249,1.922,3.973,81.0,11.38,36.77
-0.037,0.269,1.922,3.971,81.0,11.38,36.84
-0.009,0.249,1.922,3.97,81.0,11.37,36.89
-0.051,0.29,1.922,3.97,81.0,11.38,36.94
-0.084,0.331,1.919,3.968,81.0,11.38,36.98
0.225,0.767,1.919,3.966,81.0,11.38,36.98
-0.044,0.331,1.919,3.964,81.0,11.38,36.94
-0.016,0.249,1.919,3.963,81.0,11.38,36.88
0.055,0.228,1.918,3.96,85.0,11.38,36.8
0.149,0.311,1.917,3.96,85.0,11.38,36.73
-0.012,0.29,1.917,3.958,85.0,11.38,36.66
-0.052,0.249,1.917,3.958,85.0,11.38,36.61
-0.037,0.228,1.917,3.955,85.0,11.38,36.52
-0.023,0.29,1.917,3.954,85.0,11.37,36.4
-0.038,0.29,1.914,3.953,85.0,11.37,36.29
-0.081,0.311,1.914,3.953,85.0,11.37,36.2
0.228,0.787,1.914,3.95,85.0,11.38,36.13
-0.047,0.249,1.914,3.949,85.0,11.37,36.05
-0.022,0.249,1.914,3.948,85.0,11.37,35.99
0.04,0.207,1.912,3.945,83.0,11.37,35.94
0.159,0.249,1.912,3.943,83.0,11.38,35.92
0.035,0.228,1.912,3.943,83.0,11.37,35.92
-0.043,0.228,1.91,3.94,83.0,11.37,35.92
-0.031,0.249,1.909,3.94,83.0,11.37,35.9
-0.033,0.269,1.909,3.939,83.0,11.37,35.82
-0.005,0.228,1.909,3.936,83.0,11.37,35.73
-0.044,0.249,1.909,3.935,83.0,11.37,35.7
-0.073,0.311,1.909,3.933,83.0,11.37,35.66
0.246,0.746,1.907,3.933,83.0,11.37,35.65
-0.028,0.29,1.907,3.93,83.0,11.37,35.62
-0.003,0.249,1.907,3.929,83.0,11.37,35.59
0.066,0.249,1.907,3.928,78.0,11.37,35.58
0.175,0.249,1.904,3.926,78.0,11.37,35.57
0.016,0.29,1.904,3.926,78.0,11.37,35.55
-0.035,0.207,1.904,3.925,78.0,11.37,35.53
-0.025,0.249,1.904,3.923,78.0,11.37,35.52
-0.033,0.269,1.904,3.921,78.0,11.37,35.46
-0.042,0.269,1.902,3.92,78.0,11.37,35.42
-0.004,0.269,1.902,3.92,78.0,11.37,35.38
-0.053,0.269,1.902,3.919,78.0,11.37,35.37
-0.052,0.352,1.902,3.916,78.0,11.37,35.36
0.239,0.684,1.9,3.915,78.0,11.37,35.36
-0.028,0.249,1.899,3.915,78.0,11.37,35.37
0.004,0.186,1.899,3.915,78.0,11.37,35.37
0.09,0.228,1.899,3.915,72.0,11.37,35.38
0.17,0.269,1.899,3.913,72.0,11.37,35.38
-0.01,0.249,1.898,3.913,72.0,11.37,35.39
-0.036,0.249,1.897,3.913,72.0,11.37,35.4
-0.032,0.249,1.897,3.91,72.0,11.37,35.45
-0.044,0.269,1.897,3.91,72.0,11.37,35.46
-0.025,0.249,1.897,3.908,72.0,11.37,35.51
-0.056,0.228,1.897,3.908,72.0,11.37,35.58
-0.086,0.269,1.894,3.908,72.0,11.37,35.67
0.228,0.849,1.894,3.906,72.0,11.37,35.75
-0.044,0.29,1.894,3.906,72.0,11.37,35.86
-0.017,0.29,1.894,3.905,72.0,11.37,35.97
0.055,0.249,1.893,3.905,76.0,11.37,36.07
0.155,0.269,1.892,3.905,76.0,11.37,36.15
-0.009,0.249,1.892,3.905,76.0,11.37,36.24
-0.057,0.29,1.892,3.903,76.0,11.37,36.34
-0.042,0.269,1.892,3.903,76.0,11.37,36.4
-0.049,0.249,1.892,3.903,76.0,11.37,36.46
-0.025,0.269,1.89,3.903,76.0,11.37,36.54
-0.086,0.228,1.889,3.903,76.0,11.37,36.63
0.127,0.725,1.889,3.903,76.0,11.37,36.71
0.02,0.539,1.889,3.9,76.0,11.37,36.79
-0.038,0.311,1.889,3.9,76.0,11.37,36.84
0.089,0.269,1.887,3.9,80.0,11.37,36.9
0.131,0.269,1.887,3.9,80.0,11.37,36.94
0.081,0.207,1.887,3.898,80.0,11.37,36.92
-0.062,0.207,1.887,3.898,80.0,11.37,36.87
-0.053,0.249,1.887,3.895,80.0,11.37,36.77
-0.056,0.228,1.884,3.894,80.0,11.37,36.53
-0.045,0.228,1.884,3.893,80.0,11.37,36.52
-0.059,0.249,1.884,3.892,80.0,11.37,36.45
-0.1,0.29,1.884,3.891,80.0,11.37,36.36
0.212,0.704,1.883,3.889,80.0,11.37,36.28
-0.071,0.373,1.882,3.888,80.0,11.37,36.22
-0.048,0.228,1.882,3.886,80.0,11.37,36.16
0.01,0.228,1.882,3.886,80.0,11.37,36.11
0.125,0.29,1.882,3.883,80.0,11.37,36.03
0.007,0.207,1.882,3.883,80.0,11.37,35.96
-0.081,0.29,1.879,3.881,80.0,11.37,35.9
-0.068,0.269,1.879,3.881,80.0,11.37,35.85
-0.073,0.29,1.879,3.879,80.0,11.37,35.75
-0.083,0.228,1.879,3.877,80.0,11.37,35.69
-0.048,0.249,1.879,3.876,80.0,11.37,35.65
-0.11,0.228,1.879,3.874,80.0,11.37,35.64
0.011,0.642,1.878,3.873,80.0,11.37,35.63
0.084,0.58,1.877,3.872,80.0,11.37,35.61
-0.074,0.249,1.877,3.871,80.0,11.37,35.61
-0.035,0.249,1.877,3.869,75.0,11.37,35.61
0.068,0.249,1.877,3.868,75.0,11.37,35.6
0.086,0.249,1.875,3.868,75.0,11.37,35.59
-0.084,0.228,1.874,3.866,75.0,11.35,35.57
-0.085,0.269,1.874,3.866,75.0,11.37,35.55
-0.081,0.249,1.874,3.864,75.0,11.37,35.53
-0.093,0.249,1.874,3.863,75.0,11.37,35.48
-0.101,0.29,1.873,3.861,75.0,11.37,35.47
-0.065,0.269,1.872,3.859,75.0,11.35,35.45
-0.123,0.29,1.872,3.858,75.0,11.37,35.45
0.072,0.58,1.872,3.857,75.0,11.35,35.44
0.004,0.518,1.872,3.856,75.0,11.37,35.44
-0.079,0.249,1.869,3.853,75.0,11.37,35.45
-0.035,0.269,1.869,3.853,71.0,11.35,35.45
0.071,0.269,1.869,3.853,71.0,11.37,35.45
0.073,0.228,1.869,3.851,71.0,11.37,35.47
-0.088,0.228,1.869,3.849,71.0,11.37,35.46
-0.086,0.249,1.868,3.848,71.0,11.37,35.47
-0.085,0.228,1.867,3.847,71.0,11.37,35.46
-0.099,0.269,1.867,3.846,71.0,11.37,35.44
-0.084,0.269,1.867,3.843,71.0,11.35,35.49
-0.097,0.29,1.867,3.843,71.0,11.37,35.54
-0.134,0.331,1.865,3.841,71.0,11.37,35.62
0.176,0.704,1.864,3.841,71.0,11.37,35.67
-0.093,0.269,1.864,3.838,71.0,11.35,35.73
-0.068,0.207,1.864,3.838,71.0,11.37,35.83
-0.001,0.269,1.864,3.837,74.0,11.37,35.93
0.106,0.269,1.864,3.836,74.0,11.37,36.02
-0.045,0.311,1.863,3.834,74.0,11.37,36.1
-0.104,0.249,1.862,3.833,74.0,11.37,36.18
-0.088,0.269,1.862,3.832,74.0,11.37,36.25
-0.095,0.249,1.862,3.831,74.0,11.35,36.27
-0.059,0.29,1.862,3.831,74.0,11.35,36.34
-0.119,0.249,1.86,3.828,74.0,11.35,36.44
-0.081,0.435,1.86,3.828,74.0,11.37,36.53
0.147,0.684,1.86,3.826,74.0,11.35,36.62
-0.074,0.29,1.86,3.824,74.0,11.35,36.69
-0.034,0.228,1.858,3.823,74.0,11.35,36.77
0.056,0.228,1.857,3.822,80.0,11.35,36.85
0.095,0.249,1.857,3.821,80.0,11.35,36.92
-0.073,0.269,1.857,3.819,80.0,11.35,36.92
-0.074,0.228,1.857,3.818,80.0,11.35,36.87
-0.066,0.269,1.857,3.818,80.0,11.35,36.78
-0.035,0.269,1.857,3.816,80.0,11.35,36.67
-0.101,0.228,1.855,3.814,80.0,11.35,36.61
-0.058,0.435,1.855,3.813,80.0,11.35,36.53
0.164,0.663,1.855,3.812,80.0,11.35,36.49
-0.063,0.249,1.855,3.809,80.0,11.35,36.44
-0.022,0.228,1.855,3.808,80.0,11.35,36.36
0.074,0.228,1.853,3.808,84.0,11.35,36.28
0.111,0.249,1.852,3.808,84.0,11.35,36.22
-0.056,0.228,1.852,3.807,84.0,11.35,36.17
-0.058,0.269,1.852,3.806,84.0,11.35,36.12
-0.048,0.228,1.852,3.806,84.0,11.35,36.03
-0.024,0.228,1.85,3.804,84.0,11.35,35.93
-0.055,0.249,1.85,3.803,84.0,11.35,35.87
-0.091,0.331,1.85,3.801,84.0,11.35,35.83
0.223,0.746,1.85,3.801,84.0,11.35,35.82
-0.046,0.29,1.85,3.799,84.0,11.35,35.79
-0.023,0.249,1.847,3.799,84.0,11.35,35.78
0.047,0.249,1.847,3.796,81.0,11.35,35.77
0.159,0.228,1.847,3.794,81.0,11.35,35.75
0.012,0.249,1.847,3.794,81.0,11.35,35.71
-0.044,0.29,1.847,3.791,81.0,11.35,35.7
-0.029,0.269,1.845,3.791,81.0,11.35,35.67
-0.036,0.269,1.845,3.791,81.0,11.35,35.59
-0.028,0.249,1.845,3.791,81.0,11.35,35.56
-0.022,0.269,1.845,3.79,81.0,11.35,35.54
-0.069,0.269,1.843,3.789,81.0,11.35,35.52
0.239,0.746,1.842,3.786,81.0,11.35,35.52
-0.035,0.249,1.842,3.786,81.0,11.35,35.51
-0.012,0.269,1.842,3.784,81.0,11.35,35.49
0.043,0.249,1.842,3.785,81.0,11.35,35.49
0.162,0.269,1.842,3.784,81.0,11.35,35.49
0.059,0.269,1.841,3.784,81.0,11.35,35.49
-0.035,0.249,1.84,3.781,76.0,11.35,35.48
-0.028,0.228,1.84,3.781,76.0,11.35,35.47
-0.03,0.269,1.84,3.781,76.0,11.35,35.42
-0.04,0.228,1.84,3.779,76.0,11.35,35.38
-0.004,0.29,1.838,3.779,76.0,11.35,35.4
-0.061,0.269,1.838,3.776,76.0,11.35,35.42
-0.001,0.497,1.836,3.775,76.0,11.35,35.51
0.183,0.642,1.837,3.774,76.0,11.35,35.52
-0.03,0.249,1.837,3.774,76.0,11.35,35.58
0.006,0.249,1.837,3.771,76.0,11.35,35.67
0.097,0.249,1.835,3.771,74.0,11.35,35.74
0.137,0.269,1.835,3.771,74.0,11.35,35.82
-0.038,0.249,1.835,3.77,74.0,11.35,35.92
-0.043,0.29,1.835,3.769,74.0,11.35,36.03
-0.037,0.269,1.835,3.769,74.0,11.35,36.07
-0.046,0.269,1.833,3.766,74.0,11.35,36.1
-0.014,0.269,1.832,3.766,74.0,11.35,36.18
-0.075,0.269,1.832,3.766,74.0,11.35,36.25
0.105,0.642,1.832,3.766,74.0,11.35,36.35
0.063,0.559,1.832,3.764,74.0,11.35,36.45
-0.024,0.249,1.832,3.764,74.0,11.35,36.51
0.019,0.269,1.831,3.764,74.0,11.35,36.59
0.119,0.269,1.83,3.761,74.0,11.35,36.68
0.104,0.228,1.83,3.761,74.0,11.35,36.75
-0.041,0.269,1.83,3.761,78.0,11.35,36.83
-0.033,0.249,1.83,3.759,78.0,11.35,36.87
-0.034,0.207,1.827,3.759,78.0,11.35,36.84
-0.011,0.29,1.827,3.759,78.0,11.35,36.82
-0.058,0.269,1.827,3.757,78.0,11.35,36.78
-0.084,0.352,1.827,3.756,78.0,11.35,36.69
0.238,0.746,1.827,3.756,78.0,11.35,36.64
-0.042,0.311,1.827,3.754,78.0,11.35,36.56
-0.014,0.249,1.826,3.754,78.0,11.35,36.48
0.055,0.228,1.825,3.752,81.0,11.35,36.39
0.147,0.269,1.825,3.751,81.0,11.35,36.35
-0.016,0.228,1.825,3.751,81.0,11.35,36.27
-0.052,0.29,1.825,3.75,81.0,11.35,36.21
-0.036,0.249,1.825,3.749,81.0,11.35,36.13
-0.044,0.228,1.825,3.749,81.0,11.35,36.01
-0.046,0.269,1.822,3.746,81.0,11.35,35.93
-0.014,0.269,1.822,3.746,81.0,11.35,35.88
-0.078,0.249,1.822,3.744,81.0,11.35,35.86
0.163,0.642,1.822,3.744,81.0,11.35,35.84
0.013,0.518,1.821,3.741,81.0,11.35,35.83
-0.03,0.29,1.82,3.741,81.0,11.35,35.81
0.016,0.228,1.82,3.739,74.0,11.35,35.79
0.125,0.249,1.82,3.739,74.0,11.35,35.79
0.105,0.228,1.82,3.737,74.0,11.35,35.78
-0.042,0.29,1.82,3.736,74.0,11.35,35.76
-0.037,0.269,1.817,3.736,74.0,11.35,35.77
-0.034,0.228,1.817,3.734,74.0,11.35,35.73
-0.047,0.269,1.817,3.734,74.0,11.35,35.66
-0.05,0.249,1.817,3.731,74.0,11.35,35.65
-0.018,0.249,1.817,3.731,74.0,11.35,35.62
-0.067,0.249,1.817,3.731,74.0,11.35,35.62
0.079,0.539,1.816,3.729,74.0,11.35,35.62
0.112,0.559,1.816,3.729,74.0,11.35,35.61
-0.025,0.249,1.815,3.726,74.0,11.35,35.6
0.014,0.228,1.815,3.726,70.0,11.35,35.59
0.117,0.269,1.815,3.725,70.0,11.35,35.56
0.131,0.249,1.815,3.724,70.0,11.35,35.54
-0.037,0.228,1.813,3.721,70.0,11.35,35.54
-0.039,0.249,1.812,3.721,70.0,11.35,35.55
-0.034,0.269,1.812,3.721,70.0,11.35,35.51
-0.048,0.29,1.812,3.72,70.0,11.35,35.44
-0.053,0.269,1.812,3.719,70.0,11.35,35.41
-0.029,0.269,1.812,3.719,70.0,11.35,35.37
-0.056,0.228,1.811,3.716,70.0,11.35,35.35
-0.076,0.352,1.81,3.715,70.0,11.35,35.32
0.243,0.663,1.81,3.714,70.0,11.35,35.29
-0.038,0.228,1.81,3.714,70.0,11.35,35.31
-0.011,0.269,1.81,3.713,70.0,11.35,35.34
0.069,0.269,1.808,3.712,69.0,11.35,35.33
0.166,0.249,1.807,3.71,69.0,11.35,35.35
-0.011,0.269,1.807,3.709,69.0,11.35,35.35
-0.052,0.269,1.807,3.709,69.0,11.35,35.36
-0.042,0.228,1.807,3.709,69.0,11.35,35.35
-0.054,0.269,1.807,3.707,69.0,11.35,35.3
-0.066,0.29,1.807,3.705,69.0,11.35,35.32
-0.061,0.269,1.805,3.704,69.0,11.35,35.37
-0.056,0.249,1.805,3.704,69.0,11.35,35.46
-0.095,0.269,1.805,3.704,69.0,11.35,35.55
0.209,0.787,1.805,3.702,69.0,11.35,35.64
-0.061,0.269,1.805,3.702,69.0,11.35,35.74
-0.038,0.269,1.802,3.699,69.0,11.35,35.86
0.025,0.249,1.802,3.699,70.0,11.35,35.97
0.144,0.228,1.802,3.698,70.0,11.35,36.08
0.007,0.269,1.802,3.695,70.0,11.35,36.18
-0.073,0.269,1.802,3.697,70.0,11.35,36.28
-0.058,0.269,1.802,3.695,70.0,11.35,36.37
-0.065,0.249,1.802,3.694,70.0,11.35,36.4
-0.072,0.228,1.8,3.693,70.0,11.35,36.46
-0.052,0.29,1.8,3.693,70.0,11.35,36.55
-0.098,0.249,1.8,3.692,70.0,11.35,36.61
0.208,0.767,1.8,3.69,70.0,11.35,36.68
-0.073,0.414,1.8,3.689,70.0,11.35,36.71
-0.039,0.249,1.798,3.688,70.0,11.35,36.75
0.015,0.29,1.797,3.687,75.0,11.34,36.83
0.131,0.29,1.797,3.687,75.0,11.34,36.88
0.034,0.207,1.797,3.685,75.0,11.35,36.88
-0.064,0.269,1.797,3.682,75.0,11.35,36.84
-0.048,0.269,1.797,3.684,75.0,11.34,36.77
-0.055,0.269,1.797,3.683,75.0,11.34,36.66
-0.038,0.228,1.795,3.682,75.0,11.35,36.56
-0.059,0.249,1.795,3.682,75.0,11.34,36.52
-0.092,0.249,1.795,3.679,75.0,11.34,36.44
0.231,0.787,1.795,3.679,75.0,11.35,36.39
-0.048,0.311,1.795,3.677,75.0,11.34,36.33
-0.022,0.249,1.793,3.677,75.0,11.34,36.26
0.045,0.249,1.792,3.677,79.0,11.34,36.2
0.157,0.249,1.792,3.677,79.0,11.34,36.15
0.005,0.228,1.792,3.674,79.0,11.35,36.11
-0.054,0.311,1.792,3.674,79.0,11.34,36.06
-0.037,0.249,1.792,3.672,79.0,11.34,36.0
-0.04,0.29,1.791,3.672,79.0,11.35,35.9
-0.041,0.414,1.79,3.67,79.0,11.34,35.82
-0.016,0.29,1.79,3.669,79.0,11.34,35.76
-0.073,0.249,1.79,3.669,79.0,11.34,35.72
0.22,0.58,1.79,3.668,79.0,11.34,35.69
-0.027,0.518,1.787,3.665,79.0,11.34,35.66
-0.02,0.249,1.787,3.665,79.0,11.34,35.64
0.028,0.249,1.787,3.664,75.0,11.34,35.64
0.151,0.29,1.787,3.664,75.0,11.34,35.63
0.098,0.228,1.787,3.664,75.0,11.34,35.61
-0.037,0.29,1.787,3.664,75.0,11.34,35.6
-0.025,0.29,1.786,3.662,75.0,11.34,35.59
-0.024,0.29,1.785,3.662,75.0,11.34,35.54
-0.035,0.249,1.785,3.662,75.0,11.34,35.49
-0.004,0.249,1.785,3.662,75.0,11.34,35.48
-0.053,0.311,1.785,3.66,75.0,11.34,35.47
-0.047,0.352,1.783,3.658,75.0,11.34,35.49
0.237,0.684,1.785,3.657,75.0,11.34,35.49
-0.028,0.269,1.782,3.657,75.0,11.34,35.52
0.005,0.249,1.782,3.658,75.0,11.34,35.53
0.096,0.207,1.782,3.657,75.0,11.34,35.54
0.17,0.249,1.782,3.654,75.0,11.34,35.51
-0.014,0.249,1.782,3.654,75.0,11.34,35.49
-0.033,0.249,1.78,3.654,75.0,11.34,35.48
-0.022,0.269,1.78,3.654,75.0,11.34,35.45
-0.033,0.269,1.78,3.652,75.0,11.34,35.41
-0.044,0.269,1.78,3.652,75.0,11.34,35.38
-0.009,0.29,1.78,3.65,75.0,11.34,35.41
-0.06,0.228,1.78,3.649,75.0,11.34,35.41
0.025,0.518,1.777,3.649,75.0,11.34,35.43
0.164,0.684,1.777,3.649,75.0,11.34,35.43
-0.029,0.249,1.777,3.648,75.0,11.34,35.46
0.005,0.269,1.777,3.647,75.0,11.34,35.49
0.104,0.228,1.777,3.647,72.0,11.34,35.54
0.142,0.269,1.776,3.644,72.0,11.34,35.62
-0.041,0.249,1.775,3.644,72.0,11.34,35.69
-0.046,0.269,1.775,3.642,72.0,11.34,35.8
-0.04,0.249,1.775,3.64,72.0,11.34,35.87
-0.052,0.269,1.775,3.639,72.0,11.34,35.92
-0.049,0.269,1.775,3.639,72.0,11.34,36.0
-0.036,0.249,1.774,3.637,72.0,11.34,36.07
-0.08,0.228,1.773,3.637,72.0,11.34,36.16
0.223,0.684,1.773,3.637,72.0,11.34,36.25
-0.06,0.29,1.773,3.637,72.0,11.34,36.31
-0.03,0.249,1.773,3.637,72.0,11.34,36.39
0.027,0.228,1.773,3.634,74.0,11.34,36.45
0.142,0.249,1.771,3.634,74.0,11.34,36.52
0.028,0.29,1.771,3.634,74.0,11.34,36.59
-0.066,0.29,1.77,3.633,74.0,11.34,36.67
-0.05,0.249,1.77,3.632,74.0,11.34,36.73
-0.056,0.249,1.77,3.63,74.0,11.34,36.78
-0.027,0.249,1.77,3.632,74.0,11.34,36.84
-0.088,0.249,1.77,3.629,74.0,11.34,36.94
-0.088,0.414,1.768,3.628,74.0,11.34,37.02
0.21,0.787,1.768,3.627,74.0,11.34,37.08
-0.053,0.29,1.768,3.627,74.0,11.34,37.11
-0.015,0.269,1.768,3.625,74.0,11.34,37.11
0.072,0.29,1.768,3.625,80.0,11.34,37.08
0.131,0.29,1.768,3.625,80.0,11.34,37.02
-0.045,0.228,1.765,3.625,80.0,11.34,36.94
-0.056,0.207,1.765,3.625,80.0,11.34,36.85
-0.044,0.269,1.765,3.625,80.0,11.34,36.72
-0.045,0.249,1.765,3.625,80.0,11.34,36.61
-0.028,0.249,1.765,3.622,80.0,11.34,36.54
-0.092,0.269,1.765,3.62,80.0,11.34,36.5
0.143,0.663,1.763,3.62,80.0,11.34,36.43
0.01,0.601,1.763,3.621,80.0,11.34,36.39
-0.044,0.249,1.763,3.62,80.0,11.34,36.33
0.005,0.249,1.763,3.62,80.0,11.34,36.27
0.122,0.269,1.763,3.62,80.0,11.34,36.23
0.095,0.269,1.763,3.62,80.0,11.34,36.17
-0.053,0.29,1.76,3.618,80.0,11.33,36.11
-0.044,0.29,1.76,3.617,80.0,11.33,36.05
-0.036,0.269,1.76,3.617,80.0,11.33,35.97
-0.045,0.29,1.76,3.617,80.0,11.34,35.87
-0.009,0.29,1.76,3.617,80.0,11.34,35.82
-0.067,0.249,1.76,3.616,80.0,11.33,35.77
-0.056,0.352,1.76,3.617,80.0,11.33,35.74
0.234,0.912,1.758,3.615,80.0,11.34,35.72
-0.032,0.249,1.758,3.616,80.0,11.33,35.7
0.002,0.269,1.758,3.617,80.0,11.34,35.64
0.096,0.269,1.758,3.617,75.0,11.33,35.61
0.172,0.249,1.758,3.617,75.0,11.34,35.61
-0.013,0.249,1.758,3.617,75.0,11.34,35.61
-0.032,0.249,1.755,3.615,75.0,11.33,35.58
-0.02,0.269,1.755,3.615,75.0,11.33,35.54
-0.029,0.249,1.755,3.615,75.0,11.33,35.48
-0.037,0.228,1.755,3.615,75.0,11.34,35.44
-0.004,0.249,1.755,3.612,75.0,11.33,35.43
-0.061,0.249,1.755,3.612,75.0,11.34,35.42
0.123,0.601,1.755,3.61,75.0,11.33,35.43
0.081,0.559,1.753,3.61,75.0,11.33,35.43
-0.019,0.249,1.753,3.61,75.0,11.33,35.44
0.022,0.228,1.753,3.607,72.0,11.33,35.45
0.136,0.228,1.753,3.607,72.0,11.34,35.47
0.137,0.29,1.753,3.607,72.0,11.33,35.49
-0.034,0.249,1.753,3.607,72.0,11.33,35.49
-0.034,0.269,1.751,3.607,72.0,11.33,35.52
-0.031,0.249,1.753,3.605,72.0,11.33,35.53
-0.042,0.249,1.75,3.607,72.0,11.33,35.52
-0.051,0.269,1.75,3.605,72.0,11.33,35.56
-0.022,0.249,1.75,3.602,72.0,11.33,35.62
-0.065,0.269,1.75,3.602,72.0,11.33,35.69
-0.043,0.414,1.75,3.602,72.0,11.33,35.8
0.211,0.725,1.749,3.602,72.0,11.33,35.87
-0.033,0.249,1.748,3.6,72.0,11.33,35.97
0.002,0.249,1.748,3.6,72.0,11.33,36.08
0.091,0.228,1.748,3.6,70.0,11.33,36.16
0.155,0.269,1.748,3.597,70.0,11.33,36.24
-0.033,0.269,1.748,3.597,70.0,11.33,36.32
-0.046,0.269,1.748,3.596,70.0,11.33,36.41
-0.037,0.29,1.748,3.592,70.0,11.33,36.47
-0.049,0.269,1.745,3.593,70.0,11.33,36.51
-0.019,0.249,1.745,3.595,70.0,11.33,36.56
-0.077,0.269,1.745,3.593,70.0,11.33,36.65
-0.02,0.477,1.745,3.592,70.0,11.33,36.73
0.177,0.704,1.745,3.591,70.0,11.33,36.78
-0.038,0.311,1.745,3.591,70.0,11.33,36.79
0.0,0.269,1.743,3.59,70.0,11.33,36.78
0.097,0.269,1.743,3.59,77.0,11.33,36.76
0.128,0.249,1.743,3.59,77.0,11.33,36.75
-0.048,0.228,1.743,3.59,77.0,11.33,36.72
-0.049,0.249,1.743,3.588,77.0,11.33,36.67
-0.041,0.269,1.743,3.587,77.0,11.33,36.59
-0.053,0.228,1.743,3.586,77.0,11.33,36.48
-0.046,0.29,1.74,3.585,77.0,11.33,36.43
-0.042,0.249,1.74,3.585,77.0,11.33,36.35
-0.084,0.228,1.74,3.585,77.0,11.33,36.29
0.233,0.642,1.74,3.583,77.0,11.33,36.25
-0.051,0.311,1.739,3.583,77.0,11.33,36.2
-0.027,0.249,1.738,3.582,77.0,11.33,36.16
0.034,0.228,1.739,3.581,74.0,11.33,36.11
0.162,0.269,1.738,3.581,74.0,11.33,36.06
0.041,0.228,1.738,3.58,74.0,11.33,36.01
-0.051,0.269,1.738,3.58,74.0,11.33,35.97
-0.034,0.249,1.738,3.578,74.0,11.33,35.93
-0.034,0.249,1.738,3.577,74.0,11.33,35.84
-0.047,0.311,1.735,3.577,74.0,11.33,35.76
-0.047,0.311,1.735,3.577,74.0,11.33,35.72
-0.023,0.228,1.735,3.575,74.0,11.33,35.69
-0.071,0.29,1.735,3.573,74.0,11.33,35.69
0.235,0.663,1.735,3.572,74.0,11.33,35.68
-0.035,0.497,1.735,3.572,74.0,11.33,35.66
-0.018,0.249,1.734,3.572,74.0,11.33,35.66
0.033,0.29,1.733,3.57,70.0,11.33,35.64
0.16,0.29,1.733,3.57,70.0,11.33,35.61
0.093,0.269,1.733,3.57,70.0,11.33,35.6
-0.039,0.269,1.733,3.568,70.0,11.33,35.59
-0.031,0.249,1.733,3.567,70.0,11.33,35.6
-0.028,0.331,1.733,3.567,70.0,11.33,35.57
-0.041,0.269,1.731,3.567,70.0,11.33,35.53
-0.047,0.249,1.73,3.566,70.0,11.33,35.49
-0.038,0.228,1.73,3.565,70.0,11.33,35.48
-0.027,0.311,1.73,3.565,70.0,11.33,35.45
-0.065,0.249,1.73,3.562,70.0,11.33,35.45
0.248,0.767,1.73,3.562,70.0,11.33,35.46
-0.025,0.311,1.729,3.562,70.0,11.33,35.47
-0.006,0.269,1.728,3.561,70.0,11.33,35.45
0.053,0.269,1.728,3.557,67.0,11.33,35.46
0.186,0.269,1.728,3.56,67.0,11.33,35.48
0.061,0.249,1.728,3.56,67.0,11.33,35.49
-0.04,0.269,1.728,3.558,67.0,11.33,35.49
-0.029,0.311,1.728,3.557,67.0,11.33,35.51
-0.031,0.29,1.726,3.557,67.0,11.33,35.46
-0.044,0.29,1.725,3.556,67.0,11.33,35.43
-0.05,0.269,1.725,3.555,67.0,11.33,35.43
-0.026,0.249,1.725,3.555,67.0,11.33,35.43
-0.052,0.269,1.725,3.552,67.0,11.33,35.44
-0.071,0.394,1.725,3.551,67.0,11.33,35.47
0.246,0.725,1.723,3.551,67.0,11.33,35.47
-0.034,0.269,1.723,3.551,67.0,11.33,35.5
-0.011,0.249,1.723,3.55,67.0,11.33,35.53
0.065,0.311,1.723,3.55,67.0,11.33,35.57
0.17,0.269,1.723,3.548,67.0,11.33,35.61
-0.014,0.269,1.723,3.548,67.0,11.33,35.68
-0.06,0.249,1.723,3.547,67.0,11.33,35.78
-0.049,0.249,1.72,3.547,67.0,11.33,35.85
-0.058,0.269,1.72,3.545,67.0,11.33,35.88
-0.067,0.269,1.72,3.542,67.0,11.33,35.95
-0.038,0.228,1.72,3.543,67.0,11.33,36.04
-0.088,0.249,1.72,3.545,67.0,11.33,36.14
0.011,0.58,1.72,3.542,67.0,11.33,36.25
0.115,0.642,1.719,3.542,67.0,11.33,36.35
-0.049,0.228,1.718,3.54,67.0,11.33,36.45
-0.008,0.249,1.718,3.54,73.0,11.33,36.53
0.092,0.29,1.718,3.54,73.0,11.33,36.6
0.119,0.249,1.718,3.54,73.0,11.33,36.68
-0.061,0.249,1.718,3.538,73.0,11.33,36.75
-0.065,0.249,1.718,3.536,73.0,11.33,36.83
-0.061,0.228,1.716,3.535,73.0,11.33,36.86
-0.056,0.249,1.718,3.535,73.0,11.33,36.91
-0.059,0.269,1.716,3.535,73.0,11.33,36.98
-0.103,0.228,1.715,3.535,73.0,11.33,37.02
0.211,0.787,1.715,3.535,73.0,11.33,37.01
-0.073,0.29,1.715,3.535,73.0,11.33,36.98
-0.042,0.249,1.715,3.535,73.0,11.33,36.91
0.019,0.269,1.715,3.535,80.0,11.33,36.84
0.137,0.249,1.714,3.534,80.0,11.33,36.78
0.014,0.249,1.713,3.533,80.0,11.33,36.7
-0.075,0.29,1.713,3.533,80.0,11.33,36.63
-0.06,0.269,1.713,3.531,80.0,11.33,36.56
-0.065,0.249,1.713,3.531,80.0,11.33,36.45
-0.035,0.228,1.713,3.533,80.0,11.33,36.37
-0.09,0.228,1.711,3.533,80.0,11.33,36.3
-0.099,0.249,1.71,3.534,80.0,11.33,36.23
0.216,0.684,1.71,3.535,80.0,11.33,36.17
-0.067,0.29,1.71,3.535,80.0,11.33,36.12
-0.036,0.249,1.71,3.535,80.0,11.33,36.06
0.05,0.249,1.71,3.536,80.0,11.33,36.02
0.14,0.29,1.71,3.538,80.0,11.33,35.98
-0.041,0.249,1.709,3.538,80.0,11.32,35.93
-0.065,0.249,1.708,3.538,80.0,11.32,35.91
-0.057,0.228,1.708,3.539,80.0,11.33,35.87
-0.059,0.228,1.708,3.54,80.0,11.33,35.81
-0.028,0.269,1.708,3.538,80.0,11.33,35.76
-0.068,0.29,1.708,3.538,80.0,11.32,35.74
-0.091,0.394,1.708,3.538,80.0,11.33,35.71
0.238,0.787,1.706,3.538,80.0,11.33,35.69
-0.042,0.249,1.706,3.538,80.0,11.33,35.69
-0.015,0.228,1.708,3.538,80.0,11.33,35.69
0.064,0.249,1.708,3.539,76.0,11.33,35.66
0.018,0.228,1.705,3.54,76.0,11.33,35.66
-0.029,0.228,1.705,3.538,76.0,11.33,35.64
-0.043,0.269,1.705,3.538,76.0,11.33,35.62
-0.03,0.249,1.705,3.538,76.0,11.33,35.61
-0.036,0.249,1.706,3.539,76.0,11.32,35.57
-0.034,0.228,1.706,3.538,76.0,11.32,35.52
-0.03,0.29,1.705,3.538,76.0,11.32,35.52
-0.074,0.311,1.705,3.538,76.0,11.32,35.5
0.238,0.704,1.704,3.538,76.0,11.33,35.5
-0.041,0.373,1.703,3.538,76.0,11.32,35.5
-0.022,0.249,1.705,3.538,76.0,11.32,35.49
0.036,0.269,1.703,3.538,75.0,11.33,35.49
0.164,0.249,1.703,3.536,75.0,11.32,35.49
0.047,0.228,1.703,3.535,75.0,11.32,35.5
-0.049,0.249,1.703,3.535,75.0,11.32,35.49
-0.038,0.228,1.703,3.535,75.0,11.32,35.51
-0.04,0.269,1.703,3.533,75.0,11.32,35.48
-0.053,0.249,1.703,3.533,75.0,11.32,35.46
-0.024,0.249,1.701,3.531,75.0,11.33,35.49
-0.081,0.228,1.7,3.53,75.0,11.32,35.53
-0.033,0.497,1.7,3.53,75.0,11.32,35.59
0.174,0.704,1.7,3.529,75.0,11.32,35.65
-0.054,0.29,1.7,3.528,75.0,11.32,35.71
-0.019,0.29,1.7,3.528,75.0,11.32,35.79
0.076,0.249,1.7,3.528,74.0,11.32,35.86
0.127,0.228,1.7,3.525,74.0,11.32,35.95
-0.06,0.228,1.7,3.525,74.0,11.32,36.04
-0.071,0.269,1.699,3.525,74.0,11.32,36.12
-0.062,0.228,1.698,3.525,74.0,11.32,36.2
-0.067,0.249,1.698,3.523,74.0,11.32,36.24
-0.051,0.249,1.698,3.521,74.0,11.32,36.29
-0.108,0.249,1.698,3.523,74.0,11.32,36.39
0.18,0.684,1.698,3.523,74.0,11.32,36.46
-0.081,0.497,1.696,3.523,74.0,11.32,36.56
-0.059,0.249,1.695,3.523,74.0,11.32,36.63
-0.007,0.269,1.695,3.523,79.0,11.32,36.73
0.106,0.249,1.695,3.523,79.0,11.32,36.81
0.04,0.249,1.695,3.52,79.0,11.32,36.86
-0.079,0.228,1.695,3.52,79.0,11.32,36.92
-0.062,0.29,1.695,3.52,79.0,11.32,36.97
-0.064,0.249,1.694,3.52,79.0,11.32,36.95
-0.037,0.269,1.693,3.52,79.0,11.32,36.9
-0.091,0.29,1.693,3.518,79.0,11.32,36.86
-0.106,0.352,1.693,3.518,79.0,11.32,36.79
0.215,0.746,1.693,3.518,79.0,11.32,36.72
-0.066,0.269,1.693,3.518,79.0,11.32,36.65
-0.036,0.269,1.693,3.515,79.0,11.32,36.6
0.049,0.228,1.69,3.515,80.0,11.32,36.51
0.132,0.249,1.69,3.515,80.0,11.32,36.42
-0.047,0.249,1.69,3.515,80.0,11.32,36.34
-0.072,0.249,1.69,3.513,80.0,11.32,36.24
-0.055,0.269,1.69,3.513,80.0,11.32,36.14
-0.066,0.269,1.69,3.513,80.0,11.32,36.02
-0.071,0.249,1.69,3.513,80.0,11.32,35.95
-0.038,0.249,1.688,3.51,80.0,11.32,35.89
-0.097,0.249,1.688,3.51,80.0,11.32,35.85
0.098,0.58,1.688,3.51,80.0,11.32,35.82
0.042,0.601,1.688,3.509,80.0,11.32,35.79
-0.052,0.269,1.688,3.508,80.0,11.32,35.76
-0.008,0.228,1.688,3.508,73.0,11.32,35.76
0.106,0.228,1.688,3.505,73.0,11.32,35.74
0.108,0.249,1.685,3.504,73.0,11.32,35.73
-0.058,0.228,1.685,3.503,73.0,11.32,35.71
-0.056,0.249,1.685,3.503,73.0,11.32,35.71
-0.049,0.311,1.685,3.503,73.0,11.32,35.68
-0.061,0.269,1.685,3.503,73.0,11.32,35.63
-0.068,0.207,1.685,3.5,73.0,11.32,35.6
-0.039,0.249,1.685,3.5,73.0,11.32,35.59
-0.073,0.249,1.684,3.5,73.0,11.32,35.6
-0.076,0.394,1.683,3.498,73.0,11.32,35.59
0.23,0.725,1.683,3.498,73.0,11.32,35.59
-0.047,0.249,1.683,3.498,73.0,11.32,35.59
-0.016,0.29,1.683,3.498,73.0,11.32,35.6
0.071,0.311,1.683,3.496,70.0,11.32,35.6
0.162,0.29,1.683,3.495,70.0,11.32,35.61
-0.024,0.29,1.682,3.495,70.0,11.32,35.62
-0.054,0.269,1.682,3.495,70.0,11.32,35.63
-0.04,0.186,1.681,3.495,70.0,11.32,35.62
-0.048,0.29,1.681,3.495,70.0,11.32,35.57
-0.057,0.249,1.681,3.494,70.0,11.32,35.54
-0.058,0.269,1.681,3.493,70.0,11.32,35.54
-0.028,0.249,1.681,3.493,70.0,11.32,35.56
-0.075,0.269,1.679,3.493,70.0,11.31,35.57
0.209,0.663,1.678,3.493,70.0,11.32,35.58
-0.011,0.559,1.678,3.49,70.0,11.32,35.58
-0.019,0.29,1.678,3.49,70.0,11.32,35.59
0.017,0.29,1.678,3.49,68.0,11.32,35.6
0.135,0.249,1.678,3.488,68.0,11.31,35.63
0.099,0.249,1.678,3.488,68.0,11.32,35.66
-0.059,0.29,1.677,3.488,68.0,11.32,35.78
-0.055,0.29,1.676,3.488,68.0,11.32,35.77
-0.054,0.249,1.676,3.486,68.0,11.31,35.8
-0.068,0.228,1.676,3.485,68.0,11.32,35.82
-0.07,0.311,1.676,3.485,68.0,11.32,35.89
-0.046,0.269,1.676,3.485,68.0,11.32,36.0
-0.096,0.269,1.676,3.483,68.0,11.32,36.1
0.204,0.725,1.676,3.483,68.0,11.32,36.19
-0.073,0.435,1.673,3.483,68.0,11.32,36.28
-0.045,0.269,1.673,3.481,68.0,11.32,36.37
0.005,0.228,1.673,3.48,72.0,11.32,36.45
0.123,0.269,1.673,3.48,72.0,11.32,36.52
0.053,0.228,1.673,3.48,72.0,11.32,36.59
-0.076,0.228,1.673,3.48,72.0,11.32,36.68
-0.062,0.228,1.673,3.478,72.0,11.32,36.75
-0.064,0.29,1.672,3.478,72.0,11.32,36.77
-0.053,0.228,1.672,3.478,72.0,11.31,36.82
-0.066,0.269,1.671,3.475,72.0,11.31,36.87
-0.104,0.269,1.671,3.475,72.0,11.31,36.87
0.208,0.787,1.671,3.475,72.0,11.32,36.86
-0.068,0.311,1.671,3.475,72.0,11.31,36.8
-0.037,0.228,1.671,3.475,72.0,11.31,36.72
0.027,0.249,1.671,3.473,78.0,11.31,36.68
0.145,0.311,1.668,3.473,78.0,11.32,36.62
0.007,0.29,1.668,3.473,78.0,11.31,36.57
-0.068,0.269,1.668,3.471,78.0,11.31,36.52
-0.051,0.269,1.668,3.47,78.0,11.31,36.47
-0.057,0.269,1.668,3.47,78.0,11.31,36.38
-0.049,0.269,1.668,3.469,78.0,11.31,36.29
-0.046,0.269,1.666,3.468,78.0,11.31,36.24
-0.092,0.228,1.667,3.468,78.0,11.31,36.18
0.224,0.704,1.666,3.468,78.0,11.31,36.14
-0.061,0.373,1.666,3.466,78.0,11.31,36.1
-0.036,0.249,1.666,3.465,78.0,11.31,36.08
0.022,0.269,1.666,3.465,76.0,11.31,36.06
0.149,0.249,1.666,3.465,76.0,11.31,36.04
0.053,0.249,1.666,3.465,76.0,11.31,36.03
-0.057,0.269,1.664,3.463,76.0,11.31,36.02
-0.042,0.269,1.663,3.463,76.0,11.31,35.99
-0.04,0.269,1.663,3.463,76.0,11.31,35.93
-0.051,0.269,1.663,3.461,76.0,11.31,35.88
-0.022,0.269,1.663,3.46,76.0,11.31,35.86
-0.057,0.249,1.663,3.46,76.0,11.31,35.85
-0.079,0.249,1.663,3.46,76.0,11.31,35.85
0.245,0.767,1.662,3.459,76.0,11.31,35.83
-0.033,0.331,1.661,3.458,76.0,11.31,35.82
-0.007,0.228,1.661,3.458,76.0,11.31,35.83
0.071,0.249,1.661,3.458,73.0,11.31,35.83
0.185,0.249,1.661,3.458,73.0,11.31,35.83
0.012,0.249,1.661,3.456,73.0,11.31,35.83
-0.035,0.249,1.661,3.455,73.0,11.31,35.85
-0.021,0.249,1.661,3.455,73.0,11.31,35.84
-0.026,0.207,1.659,3.455,73.0,11.31,35.78
-0.035,0.228,1.658,3.454,73.0,11.31,35.75
-0.021,0.249,1.658,3.453,73.0,11.31,35.75
-0.024,0.269,1.658,3.453,73.0,11.31,35.75
-0.057,0.311,1.658,3.451,73.0,11.31,35.75
0.26,0.746,1.658,3.45,73.0,11.31,35.75
-0.015,0.269,1.658,3.45,73.0,11.31,35.75
0.006,0.249,1.658,3.449,73.0,11.31,35.76
0.072,0.29,1.656,3.449,73.0,11.31,35.76
0.198,0.249,1.656,3.448,73.0,11.31,35.77
0.05,0.228,1.656,3.448,73.0,11.31,35.76
-0.026,0.269,1.656,3.448,70.0,11.31,35.76
-0.014,0.269,1.656,3.448,70.0,11.31,35.77
-0.017,0.228,1.656,3.446,70.0,11.31,35.72
-0.028,0.228,1.656,3.446,70.0,11.31,35.69
-0.033,0.249,1.653,3.446,70.0,11.31,35.67
-0.003,0.249,1.653,3.443,70.0,11.31,35.69
-0.045,0.249,1.653,3.443,70.0,11.31,35.7
-0.011,0.435,1.653,3.443,70.0,11.31,35.71
0.221,0.663,1.653,3.443,70.0,11.31,35.73
-0.017,0.249,1.653,3.443,70.0,11.31,35.76
0.013,0.269,1.653,3.443,70.0,11.31,35.77
0.105,0.269,1.652,3.442,68.0,11.31,35.81
0.171,0.249,1.651,3.441,68.0,11.31,35.86
-0.022,0.29,1.651,3.441,68.0,11.31,35.93
-0.042,0.269,1.651,3.439,68.0,11.31,36.02
-0.034,0.29,1.651,3.438,68.0,11.31,36.08
-0.045,0.29,1.651,3.438,68.0,11.31,36.11
-0.045,0.249,1.651,3.438,68.0,11.31,36.17
-0.037,0.29,1.651,3.438,68.0,11.31,36.27
-0.08,0.29,1.651,3.436,68.0,11.31,36.37
0.224,0.787,1.649,3.436,68.0,11.31,36.48
-0.05,0.311,1.648,3.436,68.0,11.31,36.56
-0.021,0.249,1.648,3.436,68.0,11.31,36.67
0.039,0.228,1.648,3.434,74.0,11.31,36.76
0.159,0.29,1.648,3.433,74.0,11.31,36.85
0.035,0.249,1.648,3.433,74.0,11.31,36.94
-0.052,0.269,1.648,3.433,74.0,11.31,37.02
-0.035,0.228,1.647,3.433,74.0,11.31,37.08
-0.04,0.269,1.646,3.431,74.0,11.31,37.1
-0.011,0.29,1.646,3.431,74.0,11.31,37.13
-0.074,0.249,1.646,3.431,74.0,11.31,37.11
-0.054,0.373,1.646,3.431,74.0,11.31,37.03
0.211,0.684,1.646,3.429,74.0,11.31,36.96
-0.042,0.269,1.646,3.428,74.0,11.31,36.89
-0.007,0.228,1.646,3.427,74.0,11.31,36.8
0.087,0.269,1.644,3.426,80.0,11.31,36.74
0.142,0.228,1.643,3.426,80.0,11.31,36.67
-0.042,0.249,1.643,3.426,80.0,11.31,36.61
-0.053,0.249,1.643,3.426,80.0,11.31,36.55
-0.041,0.269,1.643,3.426,80.0,11.31,36.45
-0.053,0.249,1.643,3.423,80.0,11.31,36.33
-0.02,0.269,1.643,3.423,80.0,11.31,36.25
-0.085,0.269,1.641,3.423,80.0,11.31,36.21
-0.05,0.414,1.641,3.423,80.0,11.31,36.16
0.194,0.704,1.641,3.422,80.0,11.31,36.14
-0.053,0.228,1.641,3.421,80.0,11.31,36.09
-0.018,0.249,1.641,3.418,80.0,11.31,36.07
0.08,0.269,1.641,3.418,78.0,11.31,36.05
0.139,0.228,1.641,3.418,78.0,11.31,36.05
-0.047,0.249,1.641,3.418,78.0,11.31,36.03
-0.06,0.249,1.639,3.421,78.0,11.31,36.02
-0.048,0.228,1.638,3.418,78.0,11.31,35.98
-0.058,0.29,1.638,3.418,78.0,11.31,35.91
-0.059,0.249,1.638,3.418,78.0,11.31,35.88
-0.035,0.228,1.638,3.417,78.0,11.31,35.85
-0.091,0.249,1.638,3.416,78.0,11.31,35.84
0.202,0.601,1.638,3.416,78.0,11.31,35.82
-0.04,0.539,1.638,3.416,78.0,11.31,35.8
-0.041,0.269,1.636,3.413,78.0,11.31,35.78
0.007,0.249,1.636,3.413,72.0,11.31,35.78
0.13,0.269,1.636,3.413,72.0,11.31,35.78
0.085,0.228,1.636,3.413,72.0,11.31,35.77
-0.057,0.269,1.636,3.413,72.0,11.31,35.76
-0.049,0.269,1.636,3.413,72.0,11.31,35.75
-0.045,0.29,1.636,3.411,72.0,11.31,35.69
-0.055,0.269,1.634,3.413,72.0,11.31,35.6
-0.064,0.228,1.634,3.412,72.0,11.31,35.55
-0.041,0.29,1.633,3.411,72.0,11.31,35.54
-0.066,0.207,1.633,3.409,72.0,11.31,35.54
-0.083,0.311,1.633,3.409,72.0,11.31,35.54
0.241,0.684,1.633,3.411,72.0,11.31,35.53
-0.038,0.249,1.633,3.409,72.0,11.31,35.54
-0.011,0.249,1.633,3.407,72.0,11.31,35.54
0.069,0.269,1.632,3.406,68.0,11.31,35.54
0.18,0.228,1.631,3.406,68.0,11.31,35.55
0.0,0.228,1.631,3.406,68.0,11.31,35.58
-0.049,0.249,1.631,3.406,68.0,11.31,35.62
-0.04,0.269,1.631,3.406,68.0,11.31,35.66
-0.047,0.29,1.631,3.404,68.0,11.31,35.65
-0.058,0.269,1.631,3.403,68.0,11.31,35.67
-0.053,0.269,1.631,3.403,68.0,11.31,35.73
-0.048,0.228,1.629,3.403,68.0,11.31,35.82
-0.085,0.249,1.628,3.403,68.0,11.31,35.9
0.222,0.663,1.628,3.404,68.0,11.31,35.97
-0.052,0.311,1.628,3.403,68.0,11.31,36.06
-0.027,0.249,1.628,3.403,68.0,11.31,36.13
0.034,0.311,1.628,3.403,70.0,11.31,36.22
0.157,0.269,1.628,3.403,70.0,11.31,36.3
0.027,0.269,1.628,3.401,70.0,11.31,36.39
-0.064,0.249,1.627,3.401,70.0,11.31,36.48
-0.049,0.269,1.626,3.401,70.0,11.31,36.55
-0.053,0.228,1.627,3.399,70.0,11.31,36.58
-0.065,0.228,1.626,3.398,70.0,11.31,36.63
-0.035,0.249,1.626,3.398,70.0,11.31,36.7
-0.081,0.29,1.626,3.398,70.0,11.31,36.79
-0.038,0.414,1.626,3.396,70.0,11.31,36.88
0.187,0.559,1.626,3.396,70.0,11.31,36.95
-0.04,0.249,1.623,3.393,70.0,11.31,37.0
-0.003,0.228,1.624,3.394,70.0,11.31,37.05
0.09,0.249,1.623,3.393,74.0,11.31,37.07
0.14,0.29,1.623,3.393,74.0,11.31,37.05
-0.043,0.249,1.623,3.393,74.0,11.31,37.01
-0.05,0.269,1.623,3.393,74.0,11.31,36.95
-0.041,0.29,1.623,3.392,74.0,11.31,36.87
-0.053,0.249,1.623,3.391,74.0,11.31,36.74
-0.062,0.269,1.623,3.391,74.0,11.31,36.64
-0.03,0.249,1.623,3.391,74.0,11.31,36.57
-0.082,0.228,1.621,3.391,74.0,11.31,36.54
0.105,0.622,1.621,3.388,74.0,11.31,36.54
0.064,0.539,1.621,3.388,74.0,11.31,36.5
-0.038,0.311,1.621,3.386,74.0,11.31,36.44
0.001,0.249,1.621,3.386,72.0,11.31,36.37
0.111,0.269,1.621,3.386,72.0,11.31,36.33
0.118,0.249,1.621,3.386,72.0,11.31,36.28
-0.054,0.228,1.618,3.386,72.0,11.31,36.23
-0.053,0.249,1.618,3.386,72.0,11.31,36.2
-0.043,0.228,1.618,3.386,72.0,11.31,36.13
-0.054,0.249,1.618,3.384,72.0,11.31,36.03
-0.06,0.228,1.618,3.384,72.0,11.31,35.98
-0.044,0.311,1.618,3.383,72.0,11.29,35.93
-0.06,0.249,1.618,3.383,72.0,11.31,35.92
-0.083,0.331,1.618,3.383,72.0,11.31,35.9
0.246,0.704,1.616,3.383,72.0,11.31,35.87
-0.037,0.29,1.616,3.381,72.0,11.31,35.85
-0.015,0.269,1.616,3.381,72.0,11.31,35.83
0.055,0.29,1.616,3.381,68.0,11.31,35.82
0.176,0.269,1.616,3.381,68.0,11.31,35.81
0.011,0.249,1.616,3.381,68.0,11.31,35.82
-0.054,0.249,1.616,3.381,68.0,11.29,35.81
-0.039,0.249,1.616,3.378,68.0,11.29,35.81
-0.042,0.269,1.614,3.378,68.0,11.29,35.74
-0.053,0.228,1.613,3.378,68.0,11.29,35.69
-0.06,0.249,1.613,3.378,68.0,11.31,35.66
-0.04,0.228,1.613,3.378,68.0,11.31,35.65
-0.073,0.269,1.613,3.376,68.0,11.29,35.66
0.119,0.622,1.613,3.376,68.0,11.31,35.65
0.074,0.58,1.613,3.376,68.0,11.29,35.64
-0.028,0.269,1.613,3.376,68.0,11.29,35.61
0.009,0.228,1.612,3.376,68.0,11.29,35.6
0.122,0.228,1.612,3.373,68.0,11.31,35.59
0.14,0.269,1.611,3.373,68.0,11.31,35.6
-0.041,0.249,1.611,3.373,68.0,11.29,35.6
-0.043,0.249,1.611,3.372,68.0,11.29,35.61
-0.035,0.249,1.611,3.371,68.0,11.29,35.6
-0.048,0.269,1.611,3.371,68.0,11.29,35.57
-0.06,0.228,1.611,3.371,68.0,11.29,35.56
-0.051,0.29,1.609,3.369,68.0,11.29,35.59
-0.07,0.249,1.608,3.371,68.0,11.29,35.65
-0.08,0.414,1.608,3.368,68.0,11.29,35.7
0.233,0.704,1.608,3.368,68.0,11.29,35.78
-0.043,0.331,1.608,3.368,68.0,11.29,35.84
-0.018,0.228,1.608,3.368,68.0,11.29,35.9
0.063,0.29,1.608,3.368,70.0,11.29,35.97
0.163,0.249,1.608,3.368,70.0,11.29,36.08
-0.026,0.228,1.608,3.368,70.0,11.29,36.18
-0.067,0.29,1.606,3.366,70.0,11.29,36.28
-0.053,0.228,1.606,3.366,70.0,11.29,36.35
-0.064,0.228,1.606,3.366,70.0,11.29,36.37
-0.074,0.29,1.606,3.364,70.0,11.29,36.44
-0.06,0.249,1.606,3.364,70.0,11.29,36.53
-0.09,0.249,1.606,3.363,70.0,11.29,36.62
0.219,0.746,1.606,3.363,70.0,11.29,36.73
-0.064,0.352,1.606,3.363,70.0,11.29,36.8
-0.033,0.29,1.606,3.363,70.0,11.29,36.88
0.02,0.269,1.606,3.363,74.0,11.29,36.96
0.14,0.249,1.603,3.362,74.0,11.29,37.01
0.045,0.249,1.603,3.361,74.0,11.29,37.03
-0.069,0.269,1.603,3.361,74.0,11.29,36.98
-0.055,0.207,1.603,3.361,74.0,11.29,36.9
-0.06,0.228,1.603,3.361,74.0,11.29,36.78
-0.069,0.249,1.603,3.36,74.0,11.29,36.67
-0.058,0.228,1.603,3.359,74.0,11.29,36.59
-0.085,0.249,1.603,3.359,74.0,11.29,36.5
-0.023,0.373,1.603,3.359,74.0,11.29,36.47
0.184,0.622,1.601,3.359,74.0,11.29,36.42
-0.048,0.269,1.601,3.357,74.0,11.29,36.37
-0.013,0.249,1.601,3.356,74.0,11.29,36.31
0.082,0.269,1.601,3.356,75.0,11.29,36.27
0.136,0.249,1.601,3.356,75.0,11.29,36.22
-0.051,0.269,1.601,3.356,75.0,11.29,36.17
-0.056,0.228,1.601,3.356,75.0,11.29,36.12
-0.052,0.249,1.601,3.355,75.0,11.29,36.07
-0.062,0.269,1.599,3.354,75.0,11.29,35.97
-0.072,0.249,1.598,3.354,75.0,11.29,35.92
-0.062,0.186,1.598,3.354,75.0,11.29,35.9
-0.083,0.249,1.597,3.354,75.0,11.29,35.86
-0.059,0.352,1.597,3.352,75.0,11.29,35.86
0.21,0.725,1.598,3.352,75.0,11.29,35.83
-0.051,0.249,1.598,3.351,75.0,11.29,35.83
0.056,0.249,1.598,3.351,75.0,11.29,35.81
0.103,0.29,1.597,3.351,70.0,11.29,35.82
0.146,0.269,1.596,3.351,70.0,11.29,35.81
-0.045,0.29,1.597,3.351,70.0,11.29,35.8
-0.066,0.249,1.597,3.35,70.0,11.29,35.82
-0.056,0.249,1.597,3.349,70.0,11.29,35.75
-0.064,0.249,1.596,3.349,70.0,11.29,35.74
-0.073,0.29,1.596,3.349,70.0,11.29,35.72
-0.072,0.228,1.596,3.347,70.0,11.29,35.73
-0.06,0.269,1.596,3.346,70.0,11.29,35.72
-0.089,0.207,1.595,3.346,70.0,11.29,35.73
0.227,0.704,1.594,3.346,70.0,11.29,35.71
-0.037,0.414,1.594,3.346,70.0,11.29,35.71
-0.024,0.249,1.594,3.345,70.0,11.29,35.71
0.021,0.269,1.594,3.344,69.0,11.29,35.71
0.151,0.228,1.594,3.344,69.0,11.29,35.73
0.054,0.269,1.592,3.344,69.0,11.29,35.71
-0.063,0.249,1.592,3.342,69.0,11.29,35.72
-0.049,0.269,1.592,3.341,69.0,11.29,35.72
-0.05,0.228,1.591,3.341,69.0,11.29,35.68
-0.062,0.269,1.591,3.341,69.0,11.29,35.65
-0.047,0.269,1.591,3.341,69.0,11.29,35.65
-0.047,0.311,1.591,3.341,69.0,11.29,35.66
-0.081,0.249,1.591,3.341,69.0,11.29,35.68
0.055,0.622,1.591,3.341,69.0,11.29,35.66
0.112,0.601,1.591,3.339,69.0,11.29,35.68
-0.04,0.29,1.59,3.339,69.0,11.29,35.74
-0.007,0.249,1.59,3.339,69.0,11.29,35.75
0.098,0.249,1.589,3.339,69.0,11.29,35.79
0.131,0.249,1.589,3.339,69.0,11.29,35.86
-0.054,0.249,1.589,3.339,69.0,11.29,35.93
-0.06,0.249,1.589,3.336,69.0,11.29,36.03
-0.052,0.269,1.589,3.336,69.0,11.29,36.12
-0.063,0.249,1.589,3.336,69.0,11.29,36.14
-0.07,0.269,1.589,3.336,69.0,11.29,36.21
-0.051,0.228,1.589,3.336,69.0,11.29,36.3
-0.084,0.249,1.587,3.335,69.0,11.28,36.38
0.221,0.725,1.589,3.334,69.0,11.29,36.45
-0.053,0.477,1.587,3.334,69.0,11.28,36.52
-0.027,0.269,1.586,3.334,69.0,11.29,36.61
0.022,0.249,1.586,3.334,72.0,11.29,36.69
0.141,0.269,1.586,3.334,72.0,11.29,36.76
0.077,0.228,1.586,3.332,72.0,11.29,36.84
-0.058,0.249,1.586,3.332,72.0,11.29,36.91
-0.044,0.249,1.586,3.331,72.0,11.29,36.96
-0.046,0.249,1.586,3.331,72.0,11.28,36.96
-0.058,0.228,1.586,3.331,72.0,11.29,36.94
-0.048,0.228,1.585,3.331,72.0,11.28,36.92
-0.072,0.228,1.584,3.329,72.0,11.29,36.85
-0.057,0.394,1.584,3.329,72.0,11.29,36.79
0.222,0.704,1.584,3.329,72.0,11.28,36.72
-0.038,0.269,1.584,3.329,72.0,11.28,36.63
-0.007,0.228,1.584,3.329,72.0,11.29,36.55
0.081,0.249,1.584,3.329,74.0,11.28,36.46
0.152,0.29,1.582,3.326,74.0,11.29,36.4
-0.037,0.269,1.582,3.326,74.0,11.28,36.34
-0.058,0.269,1.581,3.326,74.0,11.28,36.28
-0.045,0.228,1.581,3.326,74.0,11.28,36.22
-0.055,0.249,1.581,3.326,74.0,11.28,36.12
-0.064,0.228,1.581,3.325,74.0,11.28,36.04
-0.061,0.228,1.581,3.325,74.0,11.28,35.99
-0.055,0.249,1.581,3.324,74.0,11.28,35.95
-0.077,0.228,1.581,3.324,74.0,11.28,35.93
0.243,0.725,1.581,3.324,74.0,11.29,35.9
-0.036,0.311,1.58,3.324,74.0,11.28,35.89
-0.018,0.228,1.579,3.324,74.0,11.28,35.87
0.041,0.249,1.579,3.322,69.0,11.28,35.86
0.17,0.29,1.579,3.321,69.0,11.28,35.85
0.054,0.29,1.579,3.321,69.0,11.28,35.83
-0.05,0.269,1.579,3.321,69.0,11.28,35.83
-0.036,0.228,1.579,3.321,69.0,11.28,35.84
-0.036,0.249,1.579,3.321,69.0,11.28,35.78
-0.049,0.269,1.579,3.321,69.0,11.28,35.73
-0.053,0.228,1.579,3.319,69.0,11.28,35.73
-0.042,0.228,1.577,3.319,69.0,11.29,35.71
-0.058,0.228,1.576,3.319,69.0,11.28,35.71
-0.07,0.29,1.576,3.319,69.0,11.28,35.71
0.255,0.746,1.576,3.319,69.0,11.28,35.69
-0.029,0.311,1.576,3.316,69.0,11.28,35.7
-0.006,0.228,1.576,3.316,69.0,11.28,35.69
0.072,0.29,1.576,3.316,67.0,11.28,35.69
0.183,0.249,1.576,3.316,67.0,11.28,35.69
0.003,0.269,1.576,3.316,67.0,11.28,35.69
-0.048,0.249,1.575,3.316,67.0,11.28,35.7
-0.035,0.249,1.574,3.316,67.0,11.28,35.68
-0.041,0.29,1.574,3.314,67.0,11.28,35.58
-0.054,0.228,1.574,3.314,67.0,11.28,35.55
-0.061,0.249,1.574,3.314,67.0,11.28,35.58
-0.041,0.29,1.574,3.314,67.0,11.28,35.6
-0.079,0.249,1.574,3.314,67.0,11.28,35.63
0.198,0.622,1.574,3.311,67.0,11.28,35.65
-0.024,0.559,1.574,3.311,67.0,11.28,35.7
-0.035,0.249,1.574,3.311,67.0,11.28,35.76
0.007,0.249,1.574,3.311,68.0,11.28,35.82
0.124,0.249,1.572,3.311,68.0,11.28,35.88
0.104,0.249,1.571,3.311,68.0,11.28,35.96
-0.063,0.269,1.571,3.309,68.0,11.28,36.03
-0.058,0.249,1.571,3.309,68.0,11.28,36.11
-0.056,0.29,1.571,3.309,68.0,11.28,36.14
-0.066,0.249,1.571,3.309,68.0,11.28,36.16
-0.069,0.249,1.571,3.309,68.0,11.28,36.22
-0.063,0.228,1.571,3.309,68.0,11.28,36.28
-0.088,0.228,1.571,3.307,68.0,11.28,36.39
0.22,0.767,1.57,3.306,68.0,11.28,36.45
-0.059,0.29,1.571,3.306,68.0,11.28,36.54
-0.03,0.269,1.569,3.306,68.0,11.28,36.62
0.026,0.249,1.57,3.306,72.0,11.28,36.72
0.149,0.207,1.569,3.306,72.0,11.28,36.78
0.039,0.228,1.569,3.304,72.0,11.28,36.85
-0.062,0.29,1.569,3.304,72.0,11.28,36.94
-0.048,0.249,1.569,3.304,72.0,11.28,36.97
-0.051,0.249,1.569,3.304,72.0,11.28,36.97
-0.064,0.249,1.569,3.304,72.0,11.28,36.93
-0.045,0.29,1.569,3.304,72.0,11.28,36.88
-0.081,0.249,1.569,3.302,72.0,11.28,36.79
0.115,0.622,1.567,3.302,72.0,11.28,36.73
0.06,0.539,1.566,3.301,72.0,11.28,36.64
-0.036,0.228,1.566,3.301,72.0,11.28,36.58
0.004,0.228,1.566,3.301,75.0,11.28,36.5
0.11,0.249,1.566,3.3,75.0,11.28,36.41
0.116,0.29,1.566,3.3,75.0,11.28,36.34
-0.057,0.228,1.566,3.299,75.0,11.28,36.26
-0.056,0.228,1.566,3.299,75.0,11.28,36.22
-0.047,0.249,1.566,3.299,75.0,11.28,36.12
-0.058,0.228,1.566,3.299,75.0,11.28,36.04
-0.065,0.249,1.564,3.299,75.0,11.28,35.97
-0.051,0.249,1.564,3.296,75.0,11.28,35.93
-0.076,0.249,1.564,3.296,75.0,11.28,35.9
-0.001,0.456,1.564,3.296,75.0,11.28,35.88
0.181,0.642,1.564,3.296,75.0,11.28,35.86
-0.037,0.249,1.564,3.296,75.0,11.28,35.85
-0.003,0.269,1.564,3.296,75.0,11.28,35.83
0.094,0.228,1.564,3.295,70.0,11.28,35.81
0.153,0.269,1.562,3.295,70.0,11.28,35.77
-0.038,0.249,1.562,3.294,70.0,11.28,35.76
-0.053,0.269,1.561,3.294,70.0,11.28,35.76
-0.042,0.249,1.561,3.294,70.0,11.28,35.73
-0.05,0.228,1.561,3.294,70.0,11.28,35.67
-0.058,0.228,1.561,3.294,70.0,11.28,35.64
-0.045,0.311,1.561,3.292,70.0,11.28,35.63
-0.068,0.249,1.561,3.291,70.0,11.28,35.61
-0.049,0.414,1.561,3.291,70.0,11.28,35.61
0.234,0.725,1.561,3.291,70.0,11.28,35.6
-0.032,0.228,1.561,3.291,70.0,11.28,35.6
-0.001,0.249,1.559,3.291,70.0,11.28,35.62
0.087,0.228,1.559,3.29,70.0,11.28,35.63
0.174,0.249,1.559,3.289,70.0,11.28,35.62
-0.018,0.249,1.559,3.289,70.0,11.28,35.64
-0.045,0.249,1.559,3.289,70.0,11.28,35.64
-0.036,0.269,1.559,3.289,70.0,11.28,35.64
-0.044,0.269,1.559,3.289,70.0,11.28,35.6
-0.055,0.249,1.559,3.289,70.0,11.28,35.59
-0.045,0.228,1.559,3.286,70.0,11.28,35.61
-0.067,0.249,1.559,3.286,70.0,11.28,35.63
-0.056,0.394,1.559,3.286,70.0,11.28,35.7
0.221,0.704,1.556,3.286,70.0,11.28,35.74
-0.042,0.311,1.556,3.286,70.0,11.28,35.84
-0.014,0.311,1.556,3.284,70.0,11.28,35.93
0.075,0.249,1.556,3.284,71.0,11.28,36.05
0.16,0.249,1.556,3.284,71.0,11.28,36.15
-0.036,0.269,1.556,3.284,71.0,11.28,36.24
-0.062,0.228,1.556,3.284,71.0,11.28,36.34
-0.049,0.269,1.556,3.284,71.0,11.28,36.42
-0.057,0.29,1.556,3.284,71.0,11.28,36.45
-0.077,0.269,1.555,3.284,71.0,11.28,36.52
-0.08,0.228,1.554,3.282,71.0,11.28,36.61
-0.059,0.331,1.554,3.281,71.0,11.28,36.68
0.218,0.725,1.554,3.281,71.0,11.28,36.8
-0.035,0.269,1.554,3.281,71.0,11.28,36.89
-0.001,0.249,1.554,3.281,71.0,11.28,37.06
0.085,0.249,1.555,3.281,77.0,11.28,37.08
0.147,0.228,1.554,3.281,77.0,11.28,37.13
-0.04,0.249,1.554,3.281,77.0,11.28,37.18
-0.056,0.249,1.554,3.279,77.0,11.28,37.18
-0.048,0.249,1.554,3.279,77.0,11.28,37.11
-0.061,0.228,1.554,3.279,77.0,11.28,37.03
-0.049,0.29,1.554,3.279,77.0,11.28,36.95
-0.09,0.269,1.551,3.279,77.0,11.28,36.85
0.096,0.58,1.551,3.279,77.0,11.28,36.76
0.057,0.601,1.551,3.279,77.0,11.28,36.68
-0.05,0.269,1.551,3.277,77.0,11.28,36.61
-0.011,0.249,1.551,3.277,79.0,11.28,36.55
0.099,0.249,1.551,3.276,79.0,11.28,36.48
0.096,0.29,1.551,3.276,79.0,11.28,36.43
-0.072,0.29,1.55,3.276,79.0,11.28,36.39
-0.068,0.269,1.551,3.276,79.0,11.28,36.35
-0.057,0.228,1.549,3.276,79.0,11.28,36.26
-0.069,0.269,1.549,3.274,79.0,11.28,36.19
-0.054,0.249,1.549,3.274,79.0,11.28,36.14
-0.092,0.249,1.549,3.274,79.0,11.28,36.1
-0.029,0.373,1.549,3.274,79.0,11.28,36.05
0.175,0.642,1.549,3.274,79.0,11.28,36.03
-0.056,0.269,1.549,3.274,79.0,11.28,36.01
-0.022,0.228,1.549,3.273,79.0,11.28,35.99
0.077,0.249,1.549,3.272,76.0,11.28,35.98
0.131,0.29,1.547,3.272,76.0,11.28,35.97
-0.055,0.269,1.549,3.272,76.0,11.28,35.96
-0.065,0.249,1.547,3.272,76.0,11.28,35.96
-0.055,0.249,1.546,3.272,76.0,11.28,35.93
-0.063,0.249,1.546,3.272,76.0,11.28,35.88
-0.071,0.269,1.546,3.272,76.0,11.28,35.86
-0.053,0.249,1.546,3.269,76.0,11.28,35.86
-0.087,0.228,1.546,3.269,76.0,11.28,35.87
-0.023,0.435,1.546,3.269,76.0,11.28,35.85
0.183,0.684,1.546,3.269,76.0,11.28,35.84
-0.047,0.269,1.546,3.269,76.0,11.28,35.83
-0.015,0.228,1.546,3.269,76.0,11.28,35.83
0.082,0.269,1.544,3.268,71.0,11.28,35.84
0.146,0.249,1.544,3.267,71.0,11.28,35.84
-0.046,0.29,1.545,3.267,71.0,11.28,35.84
-0.059,0.249,1.544,3.267,71.0,11.28,35.83
-0.052,0.228,1.544,3.267,71.0,11.28,35.82
-0.06,0.249,1.544,3.267,71.0,11.28,35.77
-0.069,0.228,1.544,3.267,71.0,11.28,35.75
-0.058,0.269,1.544,3.265,71.0,11.28,35.74
-0.071,0.269,1.544,3.264,71.0,11.28,35.75
-0.086,0.249,1.544,3.264,71.0,11.28,35.74
0.231,0.725,1.542,3.264,71.0,11.28,35.72
-0.045,0.29,1.541,3.264,71.0,11.28,35.74
-0.027,0.249,1.541,3.264,71.0,11.28,35.74
0.037,0.228,1.541,3.263,69.0,11.28,35.73
0.169,0.269,1.541,3.262,69.0,11.28,35.75
0.024,0.207,1.541,3.262,69.0,11.28,35.73
-0.059,0.269,1.541,3.262,69.0,11.28,35.72
-0.044,0.228,1.541,3.262,69.0,11.28,35.75
-0.047,0.269,1.541,3.262,69.0,11.28,35.7
-0.059,0.269,1.541,3.262,69.0,11.28,35.68
-0.061,0.269,1.54,3.262,69.0,11.28,35.7
-0.045,0.269,1.539,3.26,69.0,11.28,35.72
-0.079,0.207,1.539,3.262,69.0,11.28,35.76
0.176,0.601,1.539,3.259,69.0,11.28,35.81
0.001,0.539,1.539,3.259,69.0,11.28,35.83
-0.03,0.249,1.539,3.259,69.0,11.28,35.91
0.011,0.29,1.539,3.259,69.0,11.28,35.99
0.127,0.29,1.539,3.258,69.0,11.28,36.06
0.116,0.249,1.539,3.257,69.0,11.28,36.15
-0.053,0.29,1.537,3.257,69.0,11.28,36.24
-0.051,0.228,1.537,3.257,69.0,11.28,36.35
-0.042,0.228,1.539,3.257,69.0,11.28,36.38
-0.055,0.269,1.537,3.257,69.0,11.28,36.42
-0.041,0.249,1.536,3.257,69.0,11.28,36.48
-0.08,0.269,1.536,3.257,69.0,11.28,36.55
0.024,0.601,1.536,3.255,69.0,11.28,36.62
0.137,0.559,1.536,3.254,69.0,11.28,36.72
-0.034,0.228,1.536,3.254,69.0,11.28,36.8
0.004,0.269,1.536,3.254,75.0,11.28,36.86
0.104,0.249,1.536,3.254,75.0,11.28,36.92
0.13,0.249,1.536,3.254,75.0,11.28,36.96
-0.05,0.228,1.535,3.254,75.0,11.28,36.97
-0.05,0.249,1.534,3.254,75.0,11.28,36.95
-0.047,0.249,1.534,3.253,75.0,11.28,36.88
-0.06,0.228,1.534,3.252,75.0,11.28,36.78
-0.052,0.207,1.534,3.252,75.0,11.28,36.72
-0.083,0.249,1.534,3.252,75.0,11.28,36.63
-0.074,0.414,1.534,3.252,75.0,11.28,36.56
0.226,0.746,1.534,3.25,75.0,11.28,36.5
-0.051,0.249,1.534,3.249,75.0,11.28,36.45
-0.022,0.228,1.534,3.249,75.0,11.28,36.42
0.063,0.228,1.534,3.249,76.0,11.28,36.37
0.146,0.228,1.534,3.249,76.0,11.28,36.31
-0.042,0.269,1.534,3.249,76.0,11.28,36.27
-0.069,0.228,1.534,3.249,76.0,11.28,36.24
-0.053,0.269,1.531,3.249,76.0,11.28,36.19
-0.061,0.249,1.531,3.249,76.0,11.28,36.11
-0.07,0.228,1.531,3.248,76.0,11.28,36.04
-0.057,0.29,1.531,3.247,76.0,11.27,36.02
-0.078,0.249,1.531,3.247,76.0,11.28,36.0
-0.086,0.352,1.531,3.247,76.0,11.28,35.99
0.242,0.746,1.531,3.247,76.0,11.28,35.97
-0.046,0.269,1.531,3.247,76.0,11.28,35.95
-0.021,0.269,1.531,3.245,76.0,11.28,35.95
0.055,0.249,1.53,3.245,70.0,11.28,35.96
0.165,0.269,1.53,3.244,70.0,11.28,35.94
-0.012,0.269,1.529,3.244,70.0,11.28,35.94
-0.061,0.249,1.529,3.244,70.0,11.28,35.96
-0.048,0.249,1.529,3.244,70.0,11.28,35.93
-0.054,0.228,1.529,3.244,70.0,11.28,35.88
-0.058,0.269,1.529,3.244,70.0,11.28,35.83
-0.053,0.269,1.529,3.244,70.0,11.28,35.82
-0.061,0.29,1.529,3.244,70.0,11.28,35.81
-0.081,0.249,1.529,3.242,70.0,11.28,35.81
0.237,0.704,1.529,3.242,70.0,11.28,35.79
-0.039,0.331,1.527,3.242,70.0,11.28,35.79
-0.02,0.249,1.527,3.243,70.0,11.28,35.79
0.04,0.29,1.526,3.242,70.0,11.28,35.77
0.169,0.269,1.526,3.242,70.0,11.28,35.78
0.041,0.249,1.526,3.242,70.0,11.28,35.77
-0.053,0.249,1.526,3.242,70.0,11.28,35.76
-0.038,0.228,1.526,3.239,70.0,11.28,35.77
-0.04,0.249,1.526,3.239,70.0,11.28,35.73
-0.052,0.207,1.526,3.239,70.0,11.28,35.69
-0.057,0.269,1.526,3.239,70.0,11.28,35.7
-0.037,0.228,1.526,3.239,70.0,11.28,35.69
-0.071,0.249,1.525,3.239,70.0,11.28,35.69
0.227,0.642,1.526,3.238,70.0,11.28,35.7
-0.02,0.518,1.525,3.237,70.0,11.28,35.7
-0.021,0.249,1.524,3.237,70.0,11.28,35.7
0.022,0.269,1.524,3.237,69.0,11.28,35.69
0.142,0.269,1.524,3.237,69.0,11.28,35.71
0.11,0.269,1.524,3.237,69.0,11.28,35.71
-0.046,0.228,1.524,3.237,69.0,11.28,35.71
-0.039,0.269,1.524,3.237,69.0,11.28,35.72
-0.036,0.228,1.524,3.235,69.0,11.28,35.68
-0.051,0.228,1.524,3.234,69.0,11.28,35.64
-0.057,0.249,1.524,3.234,69.0,11.28,35.64
-0.04,0.311,1.521,3.234,69.0,11.28,35.61
-0.066,0.331,1.522,3.234,69.0,11.28,35.61
-0.021,0.456,1.521,3.234,69.0,11.28,35.62
0.203,0.622,1.521,3.234,69.0,11.28,35.65
-0.033,0.269,1.521,3.233,69.0,11.28,35.69
-0.004,0.249,1.521,3.232,69.0,11.28,35.69
0.084,0.249,1.521,3.232,70.0,11.28,35.73
0.157,0.311,1.521,3.232,70.0,11.28,35.77
-0.037,0.249,1.521,3.232,70.0,11.28,35.84
-0.057,0.269,1.521,3.232,70.0,11.28,35.86
-0.047,0.249,1.521,3.232,70.0,11.28,35.85
-0.054,0.269,1.521,3.23,70.0,11.28,35.88
-0.064,0.249,1.521,3.23,70.0,11.28,35.93
-0.045,0.311,1.519,3.229,70.0,11.28,36.01
-0.078,0.269,1.519,3.229,70.0,11.28,36.1
0.069,0.704,1.519,3.229,70.0,11.28,36.21
0.099,0.58,1.519,3.229,70.0,11.28,36.29
-0.032,0.29,1.519,3.229,70.0,11.28,36.29
0.006,0.311,1.519,3.229,72.0,11.28,36.35
0.108,0.29,1.519,3.229,72.0,11.28,36.52
0.135,0.249,1.519,3.229,72.0,11.28,36.61
-0.046,0.249,1.519,3.227,72.0,11.28,36.66
-0.045,0.311,1.519,3.227,72.0,11.28,36.7
-0.05,0.249,1.519,3.227,72.0,11.28,36.74
-0.05,0.249,1.517,3.227,72.0,11.28,36.81
-0.048,0.269,1.519,3.227,72.0,11.28,36.9
-0.078,0.228,1.516,3.227,72.0,11.28,36.98
0.233,0.58,1.517,3.225,72.0,11.28,37.06
-0.048,0.497,1.517,3.224,72.0,11.28,37.01
-0.026,0.269,1.516,3.224,72.0,11.27,37.02
0.02,0.269,1.516,3.224,79.0,11.27,36.96
0.133,0.228,1.516,3.224,79.0,11.28,36.9
0.068,0.228,1.516,3.224,79.0,11.27,36.88
-0.063,0.29,1.516,3.222,79.0,11.27,36.86
-0.05,0.249,1.516,3.222,79.0,11.27,36.77
-0.052,0.29,1.516,3.222,79.0,11.27,36.62
-0.066,0.207,1.516,3.224,79.0,11.27,36.53
-0.051,0.29,1.515,3.222,79.0,11.27,36.47
-0.081,0.249,1.515,3.222,79.0,11.27,36.38
0.003,0.497,1.514,3.222,79.0,11.28,36.33
0.163,0.622,1.514,3.222,79.0,11.28,36.27
-0.046,0.269,1.514,3.22,79.0,11.27,36.25
-0.01,0.228,1.514,3.219,79.0,11.27,36.2
0.086,0.269,1.514,3.22,75.0,11.27,36.17
0.133,0.228,1.514,3.219,75.0,11.27,36.08
-0.051,0.249,1.514,3.22,75.0,11.27,36.02
-0.059,0.29,1.514,3.219,75.0,11.27,35.96
-0.047,0.269,1.514,3.219,75.0,11.27,35.89
-0.057,0.228,1.512,3.219,75.0,11.28,35.8
-0.062,0.269,1.514,3.219,75.0,11.27,35.74
-0.053,0.228,1.511,3.219,75.0,11.28,35.72
-0.081,0.249,1.511,3.219,75.0,11.28,35.75
-0.054,0.29,1.511,3.219,75.0,11.27,35.74
-0.039,0.29,1.511,3.218,75.0,11.27,35.71
-0.026,0.249,1.511,3.217,75.0,11.27,35.71
0.03,0.249,1.511,3.217,75.0,11.27,35.67
0.157,0.228,1.51,3.217,75.0,11.27,35.66
0.049,0.249,1.51,3.217,75.0,11.27,35.65
-0.054,0.269,1.511,3.217,75.0,11.27,35.65
-0.038,0.228,1.511,3.217,75.0,11.27,35.66
-0.036,0.269,1.509,3.217,75.0,11.27,35.65
-0.049,0.249,1.511,3.217,75.0,11.27,35.6
-0.043,0.228,1.51,3.215,75.0,11.27,35.6
-0.049,0.249,1.509,3.214,75.0,11.27,35.61
-0.074,0.249,1.509,3.214,75.0,11.27,35.61
0.245,0.808,1.509,3.214,75.0,11.27,35.6
-0.031,0.29,1.509,3.214,75.0,11.27,35.61
-0.013,0.249,1.509,3.214,75.0,11.27,35.65
0.051,0.249,1.509,3.214,75.0,11.27,35.65
0.176,0.249,1.509,3.214,75.0,11.27,35.66
0.022,0.249,1.509,3.214,75.0,11.28,35.69
-0.051,0.331,1.507,3.212,75.0,11.27,35.7
-0.041,0.269,1.508,3.212,75.0,11.27,35.72
-0.044,0.228,1.507,3.212,75.0,11.27,35.7
-0.047,0.269,1.507,3.212,75.0,11.27,35.7
-0.044,0.269,1.507,3.212,75.0,11.27,35.76
-0.057,0.29,1.507,3.212,75.0,11.27,35.85
-0.078,0.29,1.507,3.212,75.0,11.27,35.96
0.238,0.725,1.507,3.209,75.0,11.27,36.04
-0.033,0.352,1.507,3.209,75.0,11.27,36.2
-0.01,0.249,1.507,3.209,75.0,11.27,36.21
0.058,0.311,1.507,3.209,71.0,11.27,36.29
0.18,0.269,1.507,3.209,71.0,11.27,36.37
0.025,0.228,1.507,3.209,71.0,11.27,36.45
-0.045,0.29,1.505,3.209,71.0,11.27,36.55
-0.028,0.249,1.504,3.208,71.0,11.27,36.62
-0.035,0.249,1.504,3.207,71.0,11.27,36.66
-0.039,0.249,1.504,3.207,71.0,11.27,36.73
-0.032,0.207,1.504,3.207,71.0,11.27,36.79
-0.058,0.249,1.504,3.207,71.0,11.27,36.87
0.253,0.746,1.504,3.207,71.0,11.27,36.95
-0.028,0.29,1.504,3.207,71.0,11.27,37.01
0.0,0.249,1.504,3.207,71.0,11.27,37.05
0.055,0.269,1.504,3.207,76.0,11.27,37.08
0.174,0.228,1.504,3.204,76.0,11.27,37.04
0.064,0.29,1.504,3.204,76.0,11.27,37.0
-0.038,0.269,1.502,3.204,76.0,11.27,36.94
-0.021,0.269,1.502,3.204,76.0,11.27,36.84
-0.025,0.228,1.502,3.204,76.0,11.27,36.73
-0.038,0.311,1.502,3.204,76.0,11.27,36.64
-0.033,0.249,1.502,3.204,76.0,11.27,36.57
-0.038,0.228,1.502,3.204,76.0,11.27,36.5
-0.06,0.331,1.502,3.202,76.0,11.27,36.47
0.269,0.808,1.502,3.202,76.0,11.27,36.43
-0.015,0.331,1.502,3.202,76.0,11.27,36.39
0.003,0.269,1.502,3.202,76.0,11.27,36.34
0.069,0.249,1.502,3.202,72.0,11.27,36.28
0.043,0.311,1.502,3.202,72.0,11.27,36.24
-0.001,0.269,1.502,3.202,72.0,11.27,36.2
-0.035,0.29,1.499,3.202,72.0,11.27,36.18
-0.019,0.249,1.499,3.2,72.0,11.27,36.13
-0.019,0.207,1.499,3.199,72.0,11.27,36.04
-0.029,0.228,1.499,3.199,72.0,11.27,35.91
-0.02,0.249,1.498,3.2,72.0,11.27,35.9
-0.029,0.269,1.499,3.199,72.0,11.27,35.87
-0.047,0.331,1.499,3.199,72.0,11.27,35.86
0.281,0.725,1.499,3.199,72.0,11.27,35.83
-0.003,0.29,1.499,3.199,72.0,11.27,35.82
0.015,0.249,1.499,3.197,72.0,11.27,35.83
0.083,0.228,1.499,3.198,72.0,11.27,35.81
0.203,0.249,1.499,3.197,72.0,11.27,35.79
0.036,0.269,1.499,3.197,72.0,11.27,35.77
-0.028,0.269,1.497,3.197,71.0,11.27,35.77
-0.015,0.269,1.497,3.197,71.0,11.27,35.79
-0.019,0.269,1.497,3.197,71.0,11.27,35.73
-0.032,0.29,1.497,3.197,71.0,11.27,35.69
-0.034,0.249,1.497,3.195,71.0,11.27,35.68
-0.026,0.269,1.497,3.194,71.0,11.27,35.65
-0.053,0.29,1.497,3.194,71.0,11.27,35.66
0.262,0.787,1.497,3.194,71.0,11.27,35.65
-0.015,0.331,1.497,3.194,71.0,11.27,35.64
0.0,0.311,1.497,3.194,71.0,11.27,35.66
0.053,0.331,1.497,3.194,70.0,11.27,35.69
0.182,0.249,1.495,3.194,70.0,11.27,35.69
0.074,0.29,1.494,3.194,70.0,11.27,35.74
-0.04,0.29,1.494,3.194,70.0,11.27,35.74
-0.029,0.249,1.494,3.192,70.0,11.27,35.71
-0.026,0.269,1.494,3.192,70.0,11.27,35.72
-0.038,0.311,1.494,3.192,70.0,11.27,35.69
-0.037,0.249,1.494,3.192,70.0,11.27,35.69
-0.037,0.228,1.494,3.192,70.0,11.27,35.77
-0.064,0.269,1.494,3.192,70.0,11.26,35.98
0.25,0.849,1.494,3.192,70.0,11.27,36.13
-0.027,0.352,1.494,3.192,70.0,11.26,36.13
-0.002,0.269,1.494,3.192,70.0,11.27,36.17
0.153,0.29,1.494,3.192,72.0,11.26,36.19
0.18,0.331,1.493,3.192,72.0,11.26,36.26
0.034,0.29,1.492,3.19,72.0,11.26,36.21
-0.046,0.228,1.492,3.189,72.0,11.26,36.43
-0.028,0.29,1.492,3.189,72.0,11.26,36.66
-0.032,0.269,1.493,3.189,72.0,11.26,36.71
-0.028,0.249,1.493,3.189,72.0,11.26,36.71
-0.049,0.269,1.492,3.189,72.0,11.26,36.77
-0.067,0.331,1.492,3.189,72.0,11.26,36.88
0.255,0.663,1.492,3.189,72.0,11.26,37.04
-0.023,0.269,1.492,3.189,72.0,11.26,37.15
0.002,0.249,1.492,3.187,72.0,11.26,37.22
0.076,0.249,1.492,3.187,78.0,11.26,37.18
0.17,0.249,1.492,3.187,78.0,11.26,37.05
-0.009,0.249,1.492,3.187,78.0,11.26,36.92
-0.049,0.207,1.49,3.187,78.0,11.26,36.87
-0.039,0.269,1.489,3.187,78.0,11.26,36.83
-0.048,0.249,1.489,3.187,78.0,11.26,36.73
-0.04,0.249,1.489,3.187,78.0,11.26,36.62
-0.07,0.269,1.489,3.187,78.0,11.26,36.5
-0.071,0.352,1.489,3.186,78.0,11.26,36.4
0.24,0.767,1.489,3.185,78.0,11.26,36.35
-0.017,0.269,1.489,3.185,78.0,11.26,36.32
-0.002,0.29,1.489,3.185,78.0,11.26,36.29
0.067,0.249,1.489,3.185,78.0,11.26,36.24
0.157,0.249,1.489,3.185,78.0,11.26,36.14
-0.027,0.29,1.488,3.185,78.0,11.26,36.05
-0.056,0.269,1.488,3.185,78.0,11.26,35.99
-0.042,0.311,1.488,3.183,78.0,11.26,35.98
-0.05,0.269,1.487,3.185,78.0,11.26,35.91
-0.052,0.29,1.487,3.185,78.0,11.26,35.84
-0.05,0.269,1.487,3.185,78.0,11.26,35.81
-0.079,0.269,1.487,3.182,78.0,11.26,35.81
0.234,0.725,1.487,3.182,78.0,11.26,35.8
-0.045,0.435,1.487,3.182,78.0,11.26,35.76
-0.027,0.269,1.487,3.182,78.0,11.26,35.72
0.023,0.269,1.487,3.182,75.0,11.26,35.71
0.148,0.311,1.487,3.182,75.0,11.26,35.69
0.053,0.249,1.487,3.182,75.0,11.26,35.68
-0.059,0.269,1.484,3.182,75.0,11.26,35.68
-0.048,0.249,1.485,3.182,75.0,11.26,35.69
-0.051,0.29,1.484,3.182,75.0,11.26,35.65
-0.063,0.228,1.484,3.18,75.0,11.26,35.63
-0.044,0.269,1.484,3.18,75.0,11.26,35.6
-0.084,0.269,1.484,3.18,75.0,11.26,35.57
0.04,0.559,1.484,3.18,75.0,11.26,35.54
0.119,0.663,1.484,3.18,75.0,11.26,35.49
-0.043,0.269,1.484,3.18,75.0,11.26,35.48
-0.007,0.269,1.484,3.18,75.0,11.26,35.49
0.094,0.249,1.484,3.18,75.0,11.26,35.47
0.13,0.269,1.484,3.18,75.0,11.26,35.47
-0.049,0.228,1.484,3.18,75.0,11.26,35.47
-0.052,0.269,1.484,3.178,75.0,11.26,35.48
-0.045,0.249,1.484,3.177,75.0,11.26,35.48
-0.057,0.269,1.482,3.178,75.0,11.26,35.44
-0.049,0.269,1.482,3.177,75.0,11.26,35.48
-0.063,0.249,1.482,3.177,75.0,11.26,35.55
-0.083,0.331,1.482,3.177,75.0,11.26,35.59
0.229,0.767,1.482,3.177,75.0,11.26,35.65
-0.043,0.29,1.482,3.177,75.0,11.26,35.74
-0.022,0.207,1.482,3.177,75.0,11.26,35.84
0.043,0.249,1.482,3.177,74.0,11.26,35.96
0.161,0.249,1.482,3.175,74.0,11.26,36.06
0.012,0.269,1.482,3.177,74.0,11.26,36.15
-0.057,0.29,1.482,3.175,74.0,11.26,36.27
-0.044,0.249,1.482,3.175,74.0,11.26,36.37
-0.048,0.29,1.482,3.175,74.0,11.26,36.42
-0.036,0.311,1.479,3.175,74.0,11.26,36.49
-0.079,0.228,1.479,3.175,74.0,11.26,36.59
0.164,0.58,1.479,3.175,74.0,11.26,36.67
0.001,0.539,1.479,3.175,74.0,11.26,36.78
-0.025,0.269,1.479,3.172,74.0,11.26,36.86
0.018,0.249,1.479,3.172,81.0,11.26,36.95
0.124,0.29,1.479,3.172,81.0,11.26,37.05
0.098,0.29,1.479,3.172,81.0,11.26,37.12
-0.049,0.249,1.479,3.172,81.0,11.26,37.17
-0.039,0.249,1.479,3.172,81.0,11.26,37.19
-0.04,0.249,1.479,3.172,81.0,11.26,37.11
-0.034,0.249,1.479,3.172,81.0,11.26,37.04
-0.07,0.249,1.478,3.172,81.0,11.26,36.99
-0.066,0.394,1.479,3.172,81.0,11.26,36.91
0.229,0.704,1.477,3.17,81.0,11.26,36.87
-0.043,0.269,1.477,3.17,81.0,11.26,36.79
-0.011,0.29,1.477,3.17,81.0,11.26,36.72
0.07,0.249,1.477,3.17,81.0,11.26,36.64
0.14,0.269,1.477,3.17,81.0,11.26,36.58
-0.038,0.269,1.477,3.17,81.0,11.26,36.5
-0.055,0.249,1.477,3.17,81.0,11.26,36.43
-0.051,0.29,1.477,3.168,81.0,11.26,36.34
-0.055,0.269,1.477,3.167,81.0,11.26,36.22
-0.043,0.249,1.477,3.167,81.0,11.26,36.13
-0.063,0.29,1.477,3.167,81.0,11.26,36.06
-0.081,0.373,1.475,3.168,81.0,11.26,35.99
0.249,0.704,1.475,3.167,81.0,11.26,35.92
-0.036,0.249,1.475,3.167,81.0,11.26,35.91
-0.011,0.269,1.474,3.167,81.0,11.26,35.85
0.056,0.228,1.474,3.167,76.0,11.26,35.81
0.163,0.269,1.474,3.167,76.0,11.26,35.77
-0.001,0.29,1.474,3.166,76.0,11.26,35.75
-0.05,0.249,1.474,3.165,76.0,11.26,35.71
-0.037,0.249,1.474,3.165,76.0,11.26,35.68
-0.045,0.249,1.474,3.165,76.0,11.26,35.63
-0.054,0.269,1.474,3.165,76.0,11.26,35.59
-0.041,0.249,1.474,3.165,76.0,11.26,35.59
-0.068,0.249,1.474,3.165,76.0,11.26,35.6
-0.049,0.414,1.474,3.165,76.0,11.26,35.59
0.227,0.684,1.472,3.165,76.0,11.26,35.58
-0.034,0.269,1.472,3.165,76.0,11.26,35.59
-0.004,0.249,1.472,3.165,76.0,11.26,35.55
0.077,0.249,1.472,3.163,72.0,11.26,35.53
0.157,0.228,1.472,3.162,72.0,11.26,35.55
-0.027,0.249,1.472,3.163,72.0,11.26,35.58
-0.053,0.269,1.472,3.162,72.0,11.26,35.58
-0.044,0.269,1.472,3.162,72.0,11.26,35.6
-0.055,0.249,1.472,3.162,72.0,11.26,35.58
-0.062,0.228,1.472,3.162,72.0,11.26,35.59
-0.044,0.249,1.472,3.162,72.0,11.26,35.66
-0.08,0.269,1.472,3.162,72.0,11.26,35.74
0.081,0.622,1.472,3.162,72.0,11.26,35.82
0.079,0.539,1.472,3.162,72.0,11.26,35.89
-0.034,0.249,1.47,3.161,72.0,11.26,36.0
0.006,0.269,1.469,3.16,72.0,11.26,36.08
0.107,0.269,1.469,3.16,72.0,11.26,36.17
0.132,0.249,1.469,3.16,72.0,11.26,36.26
-0.041,0.249,1.469,3.16,72.0,11.26,36.35
-0.039,0.249,1.469,3.158,72.0,11.26,36.44
-0.032,0.269,1.469,3.16,72.0,11.26,36.49
-0.036,0.249,1.469,3.16,72.0,11.26,36.54
-0.032,0.269,1.469,3.157,72.0,11.26,36.62
-0.061,0.29,1.469,3.157,72.0,11.26,36.72
0.25,0.684,1.469,3.157,72.0,11.26,36.8
-0.038,0.435,1.469,3.157,72.0,11.26,36.87
-0.008,0.269,1.469,3.157,72.0,11.26,36.96
0.039,0.228,1.469,3.157,79.0,11.26,37.05
0.148,0.249,1.469,3.157,79.0,11.26,37.1
0.07,0.249,1.468,3.157,79.0,11.26,37.13
-0.044,0.249,1.467,3.156,79.0,11.26,37.06
-0.03,0.249,1.467,3.157,79.0,11.26,36.96
-0.038,0.249,1.467,3.156,79.0,11.26,36.85
-0.04,0.269,1.467,3.155,79.0,11.26,36.77
-0.052,0.269,1.467,3.155,79.0,11.26,36.69
-0.078,0.249,1.467,3.155,79.0,11.26,36.61
0.239,0.704,1.467,3.155,79.0,11.26,36.55
-0.046,0.311,1.467,3.155,79.0,11.26,36.5
-0.027,0.269,1.467,3.155,79.0,11.26,36.4
0.028,0.249,1.467,3.155,78.0,11.26,36.3
0.143,0.228,1.467,3.153,78.0,11.26,36.25
0.015,0.29,1.467,3.153,78.0,11.26,36.21
-0.068,0.269,1.465,3.153,78.0,11.26,36.16
-0.053,0.269,1.464,3.152,78.0,11.26,36.08
-0.056,0.311,1.464,3.152,78.0,11.26,35.96
-0.067,0.249,1.464,3.152,78.0,11.26,35.87
-0.051,0.29,1.464,3.152,78.0,11.26,35.83
-0.08,0.29,1.464,3.152,78.0,11.26,35.79
-0.079,0.394,1.464,3.152,78.0,11.26,35.76
0.229,0.684,1.464,3.152,78.0,11.26,35.74
-0.052,0.269,1.464,3.15,78.0,11.26,35.71
-0.025,0.207,1.464,3.15,78.0,11.26,35.71
0.052,0.207,1.464,3.15,73.0,11.26,35.69
0.142,0.207,1.464,3.15,73.0,11.26,35.67
-0.039,0.228,1.464,3.15,73.0,11.26,35.69
-0.072,0.228,1.464,3.15,73.0,11.26,35.68
-0.062,0.249,1.464,3.15,73.0,11.26,35.68
-0.072,0.29,1.462,3.15,73.0,11.26,35.62
-0.079,0.228,1.462,3.15,73.0,11.26,35.59
-0.061,0.269,1.462,3.15,73.0,11.26,35.58
-0.091,0.311,1.462,3.15,73.0,11.26,35.58
-0.065,0.352,1.462,3.15,73.0,11.26,35.59
0.2,0.725,1.462,3.148,73.0,11.26,35.59
-0.055,0.269,1.462,3.147,73.0,11.26,35.6
-0.023,0.29,1.462,3.147,73.0,11.26,35.61
0.062,0.228,1.462,3.147,71.0,11.26,35.6
0.139,0.228,1.462,3.147,71.0,11.26,35.61
-0.048,0.269,1.462,3.147,71.0,11.26,35.64
-0.071,0.269,1.462,3.147,71.0,11.26,35.64
-0.064,0.269,1.462,3.147,71.0,11.26,35.64
-0.076,0.269,1.462,3.147,71.0,11.26,35.63
-0.084,0.249,1.459,3.147,71.0,11.26,35.63
-0.064,0.269,1.46,3.145,71.0,11.26,35.69
-0.104,0.249,1.459,3.147,71.0,11.26,35.79
0.129,0.622,1.459,3.145,71.0,11.26,35.86
-0.01,0.477,1.459,3.145,71.0,11.26,35.93
-0.058,0.249,1.459,3.145,71.0,11.26,36.02
-0.016,0.249,1.459,3.145,73.0,11.26,36.07
0.089,0.228,1.459,3.145,73.0,11.26,36.16
0.082,0.311,1.459,3.145,73.0,11.26,36.26
-0.082,0.29,1.459,3.145,73.0,11.26,36.35
-0.077,0.269,1.459,3.145,73.0,11.26,36.44
-0.074,0.269,1.459,3.145,73.0,11.26,36.48
-0.066,0.269,1.459,3.143,73.0,11.26,36.52
-0.093,0.29,1.459,3.143,73.0,11.26,36.62
-0.112,0.352,1.459,3.142,73.0,11.26,36.71
0.205,0.663,1.458,3.142,73.0,11.26,36.8
-0.068,0.311,1.457,3.142,73.0,11.26,36.88
-0.043,0.228,1.457,3.142,73.0,11.26,36.94
0.02,0.269,1.457,3.142,80.0,11.26,36.95
0.116,0.269,1.457,3.142,80.0,11.26,36.89
-0.043,0.249,1.457,3.141,80.0,11.26,36.83
-0.086,0.29,1.457,3.142,80.0,11.26,36.77
-0.075,0.228,1.457,3.14,80.0,11.26,36.68
-0.084,0.269,1.457,3.14,80.0,11.26,36.55
-0.076,0.29,1.457,3.14,80.0,11.26,36.47
-0.093,0.29,1.457,3.14,80.0,11.26,36.39
-0.113,0.311,1.457,3.14,80.0,11.26,36.33
0.212,0.725,1.457,3.14,80.0,11.26,36.28
-0.069,0.311,1.457,3.14,80.0,11.26,36.21
-0.048,0.228,1.457,3.14,80.0,11.26,36.19
0.016,0.269,1.457,3.14,77.0,11.26,36.16
0.124,0.249,1.457,3.14,77.0,11.26,36.13
-0.028,0.249,1.457,3.137,77.0,11.26,36.09
-0.087,0.29,1.454,3.137,77.0,11.26,36.07
-0.069,0.269,1.454,3.137,77.0,11.26,36.03
-0.077,0.269,1.454,3.137,77.0,11.26,35.95
-0.087,0.29,1.454,3.137,77.0,11.26,35.9
-0.067,0.249,1.454,3.137,77.0,11.26,35.88
-0.107,0.249,1.454,3.137,77.0,11.26,35.85
0.011,0.518,1.454,3.137,77.0,11.26,35.84
0.111,0.663,1.454,3.137,77.0,11.26,35.82
-0.058,0.29,1.454,3.137,77.0,11.26,35.81
-0.019,0.29,1.454,3.136,74.0,11.26,35.81
0.076,0.228,1.454,3.136,74.0,11.26,35.8
0.111,0.29,1.453,3.135,74.0,11.26,35.81
-0.064,0.269,1.453,3.135,74.0,11.26,35.81
-0.069,0.207,1.452,3.135,74.0,11.26,35.81
-0.06,0.249,1.452,3.135,74.0,11.26,35.76
-0.072,0.228,1.453,3.135,74.0,11.26,35.71
-0.071,0.249,1.452,3.135,74.0,11.26,35.7
-0.06,0.228,1.452,3.133,74.0,11.26,35.69
-0.092,0.249,1.452,3.133,74.0,11.26,35.68
0.212,0.642,1.452,3.132,74.0,11.26,35.66
-0.049,0.497,1.452,3.132,74.0,11.26,35.65
-0.039,0.269,1.452,3.132,74.0,11.26,35.66
0.008,0.29,1.452,3.132,72.0,11.26,35.65
0.127,0.269,1.452,3.132,72.0,11.26,35.65
0.078,0.269,1.452,3.132,72.0,11.26,35.66
-0.06,0.29,1.452,3.132,72.0,11.26,35.65
-0.052,0.186,1.449,3.132,72.0,11.26,35.65
-0.049,0.269,1.449,3.132,72.0,11.26,35.58
-0.06,0.269,1.449,3.13,72.0,11.26,35.52
-0.057,0.207,1.449,3.13,72.0,11.26,35.5
-0.054,0.249,1.449,3.13,72.0,11.26,35.51
-0.079,0.29,1.449,3.13,72.0,11.26,35.52
0.231,0.663,1.449,3.13,72.0,11.26,35.53
-0.049,0.29,1.449,3.13,72.0,11.26,35.55
-0.031,0.249,1.449,3.13,72.0,11.26,35.6
0.023,0.249,1.449,3.13,72.0,11.26,35.66
0.143,0.249,1.449,3.13,72.0,11.26,35.72
0.051,0.228,1.449,3.13,72.0,11.26,35.81
-0.061,0.29,1.449,3.13,72.0,11.26,35.88
-0.049,0.249,1.447,3.127,72.0,11.26,35.98
-0.052,0.269,1.448,3.127,72.0,11.26,36.02
-0.059,0.29,1.447,3.127,72.0,11.26,36.07
-0.065,0.29,1.447,3.127,72.0,11.26,36.16
-0.078,0.29,1.447,3.127,72.0,11.26,36.24
0.228,0.787,1.447,3.127,72.0,11.26,36.34
-0.049,0.269,1.447,3.127,72.0,11.26,36.44
-0.016,0.228,1.445,3.127,72.0,11.26,36.61
0.04,0.29,1.447,3.127,77.0,11.26,36.61
0.155,0.269,1.447,3.127,77.0,11.26,36.69
0.053,0.249,1.447,3.125,77.0,11.26,36.77
-0.044,0.269,1.447,3.125,77.0,11.26,36.85
-0.03,0.269,1.447,3.125,77.0,11.26,36.91
-0.036,0.249,1.447,3.125,77.0,11.26,36.95
-0.024,0.249,1.447,3.125,77.0,11.26,37.01
-0.063,0.249,1.445,3.125,77.0,11.26,37.06
0.039,0.477,1.444,3.125,77.0,11.26,37.08
0.159,0.559,1.444,3.125,77.0,11.26,37.05
-0.02,0.228,1.444,3.123,77.0,11.26,36.99
0.017,0.269,1.444,3.125,77.0,11.26,36.92
0.112,0.249,1.444,3.122,77.0,11.26,36.86
0.134,0.269,1.444,3.122,77.0,11.26,36.78
-0.034,0.269,1.444,3.122,77.0,11.26,36.69
-0.031,0.228,1.444,3.122,80.0,11.26,36.61
-0.026,0.249,1.444,3.122,80.0,11.26,36.5
-0.035,0.249,1.444,3.122,80.0,11.26,36.4
-0.018,0.29,1.444,3.122,80.0,11.26,36.32
-0.053,0.269,1.444,3.122,80.0,11.26,36.23
0.028,0.414,1.444,3.122,80.0,11.26,36.16
0.197,0.58,1.444,3.121,80.0,11.26,36.12
-0.011,0.29,1.444,3.122,80.0,11.26,36.05
0.024,0.207,1.443,3.122,80.0,11.26,36.01
0.122,0.249,1.442,3.122,80.0,11.26,35.97
0.165,0.269,1.442,3.12,80.0,11.26,35.93
-0.014,0.331,1.442,3.12,80.0,11.26,35.89
-0.021,0.269,1.442,3.12,77.0,11.26,35.86
-0.016,0.269,1.442,3.12,77.0,11.26,35.8
-0.028,0.269,1.442,3.12,77.0,11.26,35.74
-0.023,0.311,1.442,3.12,77.0,11.26,35.74
-0.037,0.269,1.442,3.12,77.0,11.26,35.74
-0.059,0.311,1.442,3.118,77.0,11.26,35.72
0.258,0.767,1.442,3.12,77.0,11.26,35.74
-0.02,0.311,1.442,3.118,77.0,11.26,35.72
0.0,0.29,1.442,3.117,77.0,11.26,35.7
0.066,0.269,1.442,3.117,77.0,11.26,35.74
0.182,0.228,1.442,3.117,77.0,11.26,35.76
0.03,0.249,1.442,3.117,77.0,11.26,35.74
-0.036,0.311,1.442,3.117,75.0,11.26,35.72
-0.025,0.269,1.44,3.117,75.0,11.26,35.72
-0.029,0.249,1.439,3.117,75.0,11.26,35.64
-0.04,0.207,1.439,3.117,75.0,11.26,35.59
-0.027,0.269,1.439,3.117,75.0,11.26,35.58
-0.058,0.249,1.439,3.117,75.0,11.26,35.58
-0.036,0.373,1.439,3.117,75.0,11.26,35.58
0.229,0.684,1.439,3.117,75.0,11.26,35.58
-0.033,0.29,1.439,3.117,75.0,11.26,35.59
-0.005,0.228,1.439,3.117,75.0,11.26,35.63
0.08,0.249,1.439,3.117,72.0,11.26,35.66
0.155,0.29,1.439,3.117,72.0,11.26,35.71
-0.034,0.29,1.439,3.117,72.0,11.26,35.79
-0.057,0.29,1.439,3.116,72.0,11.26,35.86
-0.049,0.249,1.439,3.115,72.0,11.26,35.93
-0.059,0.269,1.438,3.115,72.0,11.26,35.95
-0.051,0.269,1.438,3.115,72.0,11.26,36.02
-0.082,0.249,1.437,3.115,72.0,11.26,36.11
-0.096,0.373,1.437,3.115,72.0,11.26,36.22
0.217,0.787,1.437,3.115,72.0,11.26,36.34
-0.053,0.269,1.437,3.115,72.0,11.26,36.41
-0.026,0.228,1.437,3.115,72.0,11.26,36.51
0.045,0.249,1.437,3.113,76.0,11.26,36.6
0.134,0.29,1.437,3.112,76.0,11.26,36.69
-0.042,0.207,1.437,3.112,76.0,11.26,36.79
-0.077,0.269,1.437,3.115,76.0,11.26,36.89
-0.062,0.29,1.437,3.113,76.0,11.26,36.95
-0.067,0.29,1.437,3.112,76.0,11.26,37.0
-0.074,0.269,1.437,3.112,76.0,11.26,37.06
-0.105,0.269,1.435,3.112,76.0,11.26,37.09
0.204,0.767,1.434,3.112,76.0,11.26,37.06
-0.081,0.414,1.434,3.112,76.0,11.26,36.99
-0.056,0.228,1.434,3.112,76.0,11.26,36.89
-0.006,0.249,1.434,3.112,81.0,11.26,36.81
0.108,0.269,1.434,3.112,81.0,11.26,36.74
0.005,0.311,1.434,3.112,81.0,11.26,36.67
-0.099,0.249,1.434,3.11,81.0,11.26,36.6
-0.083,0.269,1.434,3.111,81.0,11.26,36.51
-0.082,0.249,1.434,3.111,81.0,11.26,36.39
-0.091,0.269,1.434,3.11,81.0,11.26,36.29
-0.078,0.269,1.434,3.11,81.0,11.26,36.23
-0.099,0.269,1.434,3.11,81.0,11.26,36.15
-0.108,0.394,1.434,3.11,81.0,11.26,36.12
0.216,0.704,1.434,3.11,81.0,11.26,36.07
-0.066,0.269,1.434,3.11,81.0,11.26,36.03
-0.04,0.269,1.434,3.11,81.0,11.26,35.97
0.04,0.249,1.432,3.11,73.0,11.26,35.89
0.145,0.249,1.433,3.11,73.0,11.26,35.82
-0.032,0.269,1.433,3.11,73.0,11.26,35.76
-0.072,0.29,1.432,3.11,73.0,11.26,35.74
-0.059,0.269,1.432,3.11,73.0,11.26,35.69
-0.065,0.269,1.432,3.112,73.0,11.26,35.59
-0.073,0.269,1.432,3.112,73.0,11.26,35.55
-0.057,0.622,1.432,3.112,73.0,11.26,35.52
-0.088,0.414,1.432,3.115,73.0,11.26,35.49
-0.075,0.331,1.432,3.115,73.0,11.26,35.49
0.219,0.849,1.432,3.116,73.0,11.26,35.47
-0.048,0.29,1.432,3.117,73.0,11.26,35.46
-0.02,0.249,1.432,3.12,73.0,11.26,35.44
0.067,0.331,1.432,3.123,72.0,11.26,35.43
0.155,0.311,1.432,3.126,72.0,11.26,35.43
-0.031,0.269,1.432,3.128,72.0,11.26,35.45
-0.058,0.249,1.43,3.131,72.0,11.26,35.48
-0.047,0.29,1.43,3.133,72.0,11.26,35.48
-0.057,0.269,1.429,3.137,72.0,11.26,35.41
-0.063,0.249,1.429,3.14,72.0,11.26,35.36
-0.046,0.331,1.429,3.143,72.0,11.26,35.34
-0.07,0.269,1.429,3.146,72.0,11.26,35.35
-0.082,0.352,1.429,3.151,72.0,11.26,35.37
0.235,0.746,1.429,3.153,72.0,11.26,35.4
-0.045,0.29,1.429,3.155,72.0,11.26,35.45
-0.021,0.249,1.429,3.156,72.0,11.26,35.54
0.051,0.29,1.43,3.163,70.0,11.26,35.64
0.156,0.311,1.432,3.174,70.0,11.26,35.78
-0.021,0.269,1.432,3.183,70.0,11.26,35.89
-0.068,0.29,1.432,3.186,70.0,11.24,36.02
-0.054,0.269,1.433,3.188,70.0,11.26,36.12
-0.061,0.269,1.434,3.192,70.0,11.26,36.14
-0.049,0.249,1.434,3.195,70.0,11.26,36.18
-0.093,0.249,1.434,3.208,70.0,11.26,36.25
-0.054,0.518,1.434,3.213,70.0,11.26,36.35
0.173,0.704,1.434,3.215,70.0,11.26,36.46
-0.053,0.269,1.434,3.22,70.0,11.24,36.56
-0.016,0.29,1.437,3.224,70.0,11.26,36.62
0.075,0.228,1.437,3.229,79.0,11.26,36.7
0.122,0.249,1.438,3.236,79.0,11.26,36.78
-0.059,0.269,1.439,3.246,79.0,11.26,36.85
-0.062,0.29,1.439,3.255,79.0,11.26,36.93
-0.057,0.207,1.44,3.258,79.0,11.26,36.96
-0.063,0.249,1.442,3.26,79.0,11.26,36.97
-0.062,0.249,1.442,3.262,79.0,11.24,37.01
-0.092,0.249,1.444,3.262,79.0,11.26,36.97
0.227,0.622,1.444,3.262,79.0,11.26,36.9
-0.064,0.373,1.444,3.26,79.0,11.26,36.8
-0.037,0.269,1.444,3.262,79.0,11.26,36.74
0.017,0.269,1.445,3.262,80.0,11.26,36.72
0.133,0.228,1.447,3.262,80.0,11.24,36.66
0.034,0.249,1.447,3.262,80.0,11.24,36.58
-0.071,0.373,1.447,3.264,80.0,11.26,36.5
-0.055,0.29,1.448,3.264,80.0,11.26,36.42
-0.056,0.249,1.449,3.268,80.0,11.26,36.32
-0.066,0.29,1.449,3.274,80.0,11.26,36.25
-0.047,0.249,1.449,3.274,80.0,11.24,36.2
-0.087,0.311,1.449,3.274,80.0,11.26,36.15
0.132,0.642,1.449,3.274,80.0,11.26,36.11
0.043,0.601,1.449,3.274,80.0,11.26,36.04
-0.027,0.269,1.449,3.274,80.0,11.24,35.97
0.025,0.331,1.449,3.274,75.0,11.24,35.92
0.151,0.269,1.449,3.275,75.0,11.24,35.9
0.16,0.311,1.452,3.276,75.0,11.26,35.86
0.001,0.249,1.449,3.276,75.0,11.24,35.83
0.009,0.29,1.45,3.276,75.0,11.26,35.82
0.022,0.29,1.452,3.274,75.0,11.26,35.85
0.014,0.311,1.452,3.274,75.0,11.24,35.94
0.038,0.331,1.452,3.274,75.0,11.26,36.01
0.005,0.228,1.452,3.272,75.0,11.26,36.03
0.22,0.622,1.453,3.272,75.0,11.26,36.06
0.169,0.539,1.454,3.269,75.0,11.24,36.1
0.085,0.269,1.454,3.269,75.0,11.26,36.11
0.135,0.269,1.454,3.268,75.0,11.24,36.22
0.259,0.29,1.454,3.267,75.0,11.26,36.34
0.267,0.269,1.454,3.267,75.0,11.26,36.54
0.111,0.311,1.454,3.267,75.0,11.26,36.81
0.126,0.269,1.454,3.267,75.0,11.24,36.97
0.144,0.269,1.454,3.264,75.0,11.26,37.01
0.146,0.269,1.454,3.264,75.0,11.24,37.09
0.17,0.249,1.455,3.264,75.0,11.26,37.17
0.13,0.249,1.457,3.264,75.0,11.24,37.12
0.374,0.58,1.457,3.262,75.0,11.24,37.04
0.193,0.539,1.458,3.262,75.0,11.26,36.94
0.137,0.228,1.459,3.262,75.0,11.24,36.82
0.164,0.249,1.459,3.262,75.0,11.26,36.64
0.263,0.249,1.46,3.26,75.0,11.26,36.49
0.224,0.207,1.462,3.259,75.0,11.24,36.43
0.052,0.228,1.462,3.26,75.0,11.24,36.5
0.044,0.269,1.462,3.262,75.0,11.24,36.52
0.046,0.269,1.462,3.26,75.0,11.24,36.51
0.054,0.29,1.462,3.259,75.0,11.26,36.42
0.016,0.29,1.462,3.26,75.0,11.24,36.49
-0.016,0.352,1.462,3.262,75.0,11.24,36.75
0.256,0.746,1.462,3.262,75.0,11.26,37.39
-0.031,0.29,1.462,3.262,75.0,11.26,37.95
-0.026,0.249,1.462,3.262,75.0,11.24,37.99
0.029,0.269,1.463,3.262,75.0,11.24,37.66
0.082,0.269,1.464,3.263,75.0,11.24,37.65
-0.114,0.249,1.464,3.264,75.0,11.24,38.14
-0.144,0.228,1.464,3.264,75.0,11.24,38.53
-0.138,0.269,1.464,3.264,75.0,11.24,38.52
-0.135,0.331,1.463,3.264,75.0,11.24,38.32
-0.188,0.352,1.464,3.264,75.0,11.24,38.21
0.073,0.622,1.464,3.264,75.0,11.24,38.19
-0.112,0.642,1.464,3.264,75.0,11.24,38.28
-0.117,0.394,1.464,3.267,75.0,11.24,38.47
-0.055,0.518,1.464,3.267,75.0,11.24,38.64
0.07,0.559,1.464,3.267,75.0,11.24,38.84
0.056,0.663,1.464,3.267,75.0,11.24,39.16
-0.023,0.559,1.464,3.267,75.0,11.24,39.52
0.045,0.704,1.464,3.267,75.0,11.24,39.88
0.113,0.891,1.464,3.269,75.0,11.24,40.33
0.162,0.601,1.464,3.269,75.0,11.24,41.11
0.174,0.725,1.465,3.269,75.0,11.24,41.99
0.567,1.077,1.465,3.269,75.0,11.24,43.03
0.268,0.953,1.467,3.27,75.0,11.24,44.12
0.295,0.663,1.467,3.269,75.0,11.24,45.27
0.378,0.891,1.467,3.269,75.0,11.24,46.61
0.456,1.015,1.467,3.269,75.0,11.24,47.89
0.311,0.974,1.467,3.272,75.0,11.24,48.84
0.28,0.932,1.467,3.273,75.0,11.24,49.42
0.328,0.787,1.467,3.274,75.0,11.24,49.74
0.327,0.746,1.467,3.274,75.0,11.24,49.96
0.246,0.746,1.467,3.274,75.0,11.24,50.11
0.601,0.725,1.467,3.274,75.0,11.24,50.24
0.253,0.622,1.467,3.274,75.0,11.24,50.24
0.266,0.642,1.467,3.274,75.0,11.24,50.14
0.305,0.725,1.467,3.276,75.0,11.24,50.02
0.39,0.518,1.469,3.276,75.0,11.24,49.8
0.283,0.601,1.469,3.279,75.0,11.24,49.57
0.187,0.58,1.469,3.28,75.0,11.24,49.44
0.216,0.559,1.469,3.282,75.0,11.24,49.34
0.232,0.622,1.469,3.286,75.0,11.24,49.11
0.132,0.435,1.469,3.29,75.0,11.24,48.75
0.257,0.994,1.469,3.295,75.0,11.24,48.14
0.269,1.14,1.469,3.297,87.0,11.24,47.34
0.105,1.264,1.469,3.305,87.0,11.24,46.31
0.131,1.885,1.469,3.31,87.0,11.24,45.27
0.214,1.575,1.472,3.316,87.0,11.24,44.45
0.177,1.326,1.473,3.322,87.0,11.24,43.8
0.03,1.471,1.474,3.328,87.0,11.24,43.23
0.031,1.077,1.475,3.338,87.0,11.24,43.01
0.024,1.533,1.477,3.352,87.0,11.24,42.87
0.001,1.14,1.479,3.363,87.0,11.24,42.2
0.004,1.285,1.482,3.374,87.0,11.24,41.18
-0.002,0.87,1.482,3.392,87.0,11.24,40.47
-0.053,0.932,1.484,3.402,87.0,11.24,40.18
0.291,1.098,1.487,3.408,87.0,11.24,40.08
-0.036,0.891,1.488,3.415,87.0,11.24,40.12
-0.02,0.932,1.489,3.425,87.0,11.24,40.05
0.033,1.305,1.492,3.438,87.0,11.24,39.88
0.129,0.642,1.492,3.444,87.0,11.24,39.71
-0.006,0.932,1.493,3.449,87.0,11.24,39.54
-0.082,0.663,1.494,3.454,87.0,11.24,39.36
-0.072,0.953,1.497,3.461,87.0,11.24,39.17
-0.081,0.767,1.498,3.466,87.0,11.24,38.97
-0.084,0.663,1.499,3.474,87.0,11.24,38.86
-0.135,1.077,1.502,3.485,87.0,11.24,38.81
0.192,0.994,1.503,3.491,87.0,11.24,38.79
-0.108,0.891,1.504,3.494,87.0,11.24,38.74
-0.087,0.953,1.507,3.498,87.0,11.24,38.68
-0.029,0.601,1.508,3.501,83.0,11.24,38.67
0.082,1.326,1.509,3.51,83.0,11.24,38.61
-0.05,0.684,1.511,3.516,83.0,11.24,38.55
-0.135,0.725,1.512,3.519,83.0,11.24,38.49
-0.124,0.891,1.514,3.52,83.0,11.24,38.4
-0.135,0.891,1.516,3.524,83.0,11.24,38.33
-0.116,0.663,1.516,3.525,83.0,11.24,38.27
-0.16,0.912,1.519,3.529,83.0,11.24,38.22
-0.181,0.974,1.519,3.534,83.0,11.24,38.19
0.146,0.953,1.52,3.539,83.0,11.24,38.15
-0.153,0.58,1.521,3.547,83.0,11.24,38.08
-0.124,0.787,1.521,3.556,83.0,11.24,38.07
-0.042,0.704,1.522,3.571,80.0,11.24,38.05
0.039,0.974,1.524,3.587,80.0,11.24,38.03
-0.14,0.601,1.526,3.608,80.0,11.24,37.99
-0.16,0.663,1.527,3.627,80.0,11.24,37.92
-0.153,0.642,1.529,3.647,80.0,11.24,37.86
-0.167,0.725,1.531,3.689,80.0,11.24,37.81
-0.154,0.746,1.532,3.722,80.0,11.24,37.79
-0.174,0.87,1.535,3.741,80.0,11.24,37.74
-0.213,1.181,1.537,3.764,80.0,11.24,37.69
0.13,1.077,1.541,3.818,80.0,11.24,37.65
-0.172,0.994,1.542,3.854,80.0,11.24,37.65
-0.141,0.849,1.547,3.877,80.0,11.24,37.66
-0.075,0.808,1.549,3.905,76.0,11.24,37.61
0.029,1.222,1.551,3.947,76.0,11.24,37.54
-0.142,0.663,1.555,3.996,76.0,11.24,37.46
-0.176,0.767,1.557,4.056,76.0,11.24,37.49
-0.165,0.994,1.56,4.109,76.0,11.23,37.49
-0.177,0.849,1.564,4.14,76.0,11.23,37.43
-0.178,0.725,1.567,4.187,76.0,11.23,37.4
-0.156,0.601,1.575,4.236,76.0,11.23,37.38
-0.203,0.663,1.577,4.296,76.0,11.24,37.38
0.12,1.077,1.582,4.348,76.0,11.26,37.37
-0.168,0.642,1.59,4.382,76.0,11.24,37.32
-0.141,0.663,1.601,4.406,76.0,11.24,37.32
-0.08,0.787,1.624,4.425,75.0,11.24,37.31
0.029,0.622,1.64,4.452,75.0,11.24,37.42
-0.096,0.477,1.65,4.476,75.0,11.24,37.37
-0.183,0.642,1.658,4.495,75.0,11.24,37.31
-0.169,0.767,1.668,4.521,75.0,11.24,37.17
-0.181,0.58,1.683,4.559,75.0,11.24,37.14
-0.198,0.704,1.7,4.599,75.0,11.24,37.3
-0.167,0.518,1.716,4.625,75.0,11.24,37.36
-0.227,0.414,1.731,4.676,75.0,11.24,37.3
0.001,0.622,1.767,4.702,75.0,11.24,37.25
-0.118,0.518,1.793,4.718,75.0,11.24,37.25
-0.179,0.622,1.804,4.738,75.0,11.24,37.25
-0.133,0.435,1.814,4.763,75.0,11.24,37.25
-0.03,0.559,1.824,4.795,75.0,11.24,37.24
-0.036,0.477,1.842,4.826,75.0,11.24,37.23
-0.196,0.394,1.852,4.864,75.0,11.24,37.22
-0.188,0.414,1.859,4.901,75.0,11.24,37.17
-0.185,0.601,1.865,4.932,75.0,11.24,37.06
-0.198,0.58,1.873,4.961,75.0,11.24,36.99
-0.173,0.373,1.879,4.992,75.0,11.24,36.99
-0.195,0.414,1.888,5.005,75.0,11.24,37.02
-0.219,0.642,1.906,5.019,75.0,11.24,37.03
0.109,0.932,1.937,5.043,75.0,11.24,37.0
-0.167,0.456,1.957,5.07,75.0,11.24,36.97
-0.133,0.394,1.975,5.082,75.0,11.24,36.97
-0.05,0.352,1.988,5.081,74.0,11.24,37.01
0.046,0.456,2.002,5.093,74.0,11.24,37.07
-0.127,0.394,2.041,5.091,74.0,11.24,37.07
-0.154,0.414,2.074,5.094,74.0,11.24,37.04
-0.145,0.435,2.094,5.096,74.0,11.24,37.01
-0.151,0.497,2.119,5.1,74.0,11.24,36.98
-0.139,0.477,2.17,5.1,74.0,11.24,36.99
-0.134,0.601,2.215,5.094,74.0,11.24,37.02
-0.176,0.518,2.26,5.094,74.0,11.24,37.03
0.139,0.808,2.292,5.098,74.0,11.24,37.06
-0.131,0.435,2.305,5.098,74.0,11.24,37.04
-0.101,0.518,2.316,5.088,74.0,11.24,37.04
-0.034,0.435,2.337,5.077,76.0,11.24,37.04
0.081,0.414,2.377,5.068,76.0,11.24,37.06
-0.091,0.456,2.402,5.062,76.0,11.24,37.09
-0.125,0.477,2.406,5.057,76.0,11.24,37.09
-0.114,0.539,2.41,5.05,76.0,11.24,37.09
-0.125,0.477,2.416,5.041,76.0,11.24,37.04
-0.13,0.497,2.421,5.033,76.0,11.24,37.02
-0.096,0.477,2.432,5.021,76.0,11.24,37.04
-0.155,0.352,2.434,5.022,76.0,11.24,37.05
0.136,0.622,2.443,5.015,76.0,11.24,37.07
-0.121,0.601,2.456,5.013,76.0,11.24,37.06
-0.102,0.456,2.468,5.009,76.0,11.24,37.04
-0.048,0.414,2.478,5.009,75.0,11.24,37.04
0.064,0.601,2.484,5.007,75.0,11.24,37.04
0.015,0.497,2.492,5.004,75.0,11.24,37.06
-0.118,0.456,2.499,5.0,75.0,11.24,37.07
-0.112,0.497,2.507,4.999,75.0,11.24,37.09
-0.114,0.414,2.512,4.998,75.0,11.24,37.06
-0.125,0.456,2.516,5.0,75.0,11.24,37.03
-0.09,0.311,2.519,5.0,75.0,11.24,37.03
-0.149,0.559,2.527,4.997,75.0,11.24,37.02
0.041,0.601,2.533,4.993,75.0,11.24,37.06
-0.024,0.746,2.56,4.99,75.0,11.24,37.08
-0.105,0.435,2.572,4.985,75.0,11.24,37.09
-0.056,0.477,2.581,4.983,75.0,11.24,37.09
0.049,0.311,2.583,4.98,75.0,11.24,37.08
0.054,0.352,2.584,4.977,75.0,11.24,37.08
-0.107,0.456,2.586,4.973,75.0,11.24,37.09
-0.105,0.352,2.591,4.969,75.0,11.24,37.09
-0.105,0.477,2.594,4.965,75.0,11.24,37.06
-0.106,0.373,2.609,4.96,75.0,11.24,37.03
-0.096,0.29,2.627,4.955,75.0,11.24,37.03
-0.146,0.311,2.635,4.951,75.0,11.24,37.03
0.15,0.87,2.639,4.947,75.0,11.24,37.04
-0.113,0.352,2.644,4.945,75.0,11.24,37.07
-0.087,0.249,2.649,4.942,75.0,11.24,37.06
-0.022,0.477,2.654,4.94,80.0,11.24,37.07
0.093,0.311,2.659,4.941,80.0,11.24,37.07
-0.02,0.331,2.672,4.943,80.0,11.24,37.08
-0.107,0.29,2.681,4.948,80.0,11.24,37.08
-0.094,0.456,2.687,4.951,80.0,11.24,37.07
-0.104,0.269,2.694,4.955,80.0,11.24,37.04
-0.068,0.373,2.698,4.959,80.0,11.24,37.03
-0.134,0.29,2.7,4.963,80.0,11.24,37.05
0.015,0.684,2.701,4.971,80.0,11.24,37.05
0.025,0.601,2.702,4.984,80.0,11.24,37.07
-0.09,0.331,2.705,4.994,80.0,11.24,37.09
-0.039,0.373,2.708,5.001,80.0,11.24,37.09
0.067,0.435,2.713,5.01,80.0,11.24,37.09
0.072,0.331,2.718,5.018,80.0,11.24,37.09
-0.081,0.456,2.722,5.025,80.0,11.24,37.1
-0.077,0.331,2.726,5.033,81.0,11.24,37.11
-0.078,0.352,2.731,5.04,81.0,11.24,37.08
-0.058,0.394,2.736,5.047,81.0,11.24,37.05
-0.092,0.394,2.738,5.052,81.0,11.23,37.07
-0.126,0.29,2.743,5.062,81.0,11.24,37.08
0.187,0.746,2.745,5.072,81.0,11.24,37.1
-0.078,0.269,2.754,5.083,81.0,11.24,37.1
-0.046,0.269,2.761,5.092,81.0,11.24,37.09
0.024,0.249,2.775,5.095,81.0,11.24,37.1
0.109,0.186,2.78,5.101,81.0,11.24,37.11
-0.069,0.228,2.785,5.116,81.0,11.24,37.09
-0.132,0.29,2.789,5.119,81.0,11.24,37.2
-0.138,0.311,2.793,5.119,81.0,11.24,37.33
-0.125,0.352,2.797,5.117,81.0,11.24,37.28
-0.162,0.228,2.8,5.119,81.0,11.24,37.18
-0.21,0.29,2.806,5.117,81.0,11.24,37.28
0.087,0.767,2.817,5.118,81.0,11.24,37.1
-0.178,0.269,2.815,5.119,81.0,11.24,37.09
-0.152,0.249,2.819,5.122,81.0,11.24,36.86
-0.072,0.207,2.822,5.126,83.0,11.24,36.75
0.03,0.228,2.825,5.129,83.0,11.24,36.86
-0.126,0.207,2.828,5.133,83.0,11.24,36.96
-0.172,0.228,2.833,5.136,83.0,11.24,36.92
-0.166,0.269,2.837,5.138,83.0,11.24,36.77
-0.146,0.228,2.842,5.143,83.0,11.24,36.65
-0.176,0.228,2.85,5.152,83.0,11.24,36.76
-0.219,0.249,2.857,5.155,83.0,11.24,36.81
0.081,0.767,2.861,5.164,83.0,11.24,36.74
-0.175,0.249,2.864,5.166,83.0,11.24,36.63
-0.143,0.228,2.875,5.166,83.0,11.24,36.6
-0.064,0.207,2.881,5.168,84.0,11.24,36.71
0.038,0.228,2.895,5.167,84.0,11.24,36.77
-0.11,0.228,2.914,5.163,84.0,11.24,36.71
-0.154,0.228,2.915,5.163,84.0,11.24,36.65
-0.147,0.228,2.917,5.166,84.0,11.24,36.63
-0.135,0.269,2.922,5.169,84.0,11.24,36.64
-0.144,0.269,2.924,5.171,84.0,11.24,36.65
-0.192,0.269,2.928,5.167,84.0,11.24,36.63
0.103,0.684,2.929,5.162,84.0,11.24,36.63
-0.157,0.269,2.932,5.157,84.0,11.24,36.69
-0.124,0.249,2.933,5.153,84.0,11.23,36.78
-0.058,0.269,2.936,5.149,83.0,11.24,36.83
0.056,0.249,2.938,5.147,83.0,11.24,36.89
-0.053,0.29,2.941,5.143,83.0,11.24,36.96
-0.123,0.249,2.941,5.139,83.0,11.24,37.05
-0.109,0.29,2.943,5.137,83.0,11.24,37.11
-0.086,0.228,2.946,5.134,83.0,11.24,37.15
-0.112,0.249,2.947,5.132,83.0,11.24,37.22
-0.153,0.269,2.951,5.132,83.0,11.24,37.29
0.143,0.829,2.954,5.133,83.0,11.24,37.38
-0.11,0.352,2.958,5.134,83.0,11.24,37.44
-0.075,0.207,2.959,5.137,83.0,11.24,37.48
-0.001,0.228,2.964,5.138,83.0,11.24,37.48
0.094,0.29,2.968,5.137,83.0,11.24,37.48
-0.051,0.29,2.972,5.136,83.0,11.24,37.46
-0.091,0.269,2.973,5.132,85.0,11.24,37.45
-0.084,0.311,2.976,5.129,85.0,11.24,37.38
-0.066,1.036,2.976,5.127,85.0,11.24,37.31
-0.099,1.554,2.978,5.125,85.0,11.24,37.25
-0.141,2.134,2.978,5.125,85.0,11.24,37.22
0.175,1.948,2.979,5.127,85.0,11.24,37.23
-0.098,1.16,2.981,5.126,85.0,11.24,37.26
0.0,1.077,2.983,5.126,85.0,11.24,37.28
0.041,1.057,2.987,5.124,85.0,11.24,37.46
0.11,0.725,2.989,5.124,85.0,11.24,37.74
-0.044,2.631,2.994,5.122,85.0,11.24,37.81
-0.078,2.196,3.0,5.117,85.0,11.24,37.84
-0.065,1.388,3.014,5.114,85.0,11.24,37.73
-0.056,1.72,3.014,5.114,85.0,11.24,37.72
-0.075,1.492,3.019,5.114,85.0,11.24,37.77
-0.116,1.948,3.024,5.111,85.0,11.24,37.94
0.181,2.486,3.028,5.107,85.0,11.24,38.13
-0.094,1.036,3.031,5.102,85.0,11.24,38.24
-0.068,2.03,3.036,5.097,85.0,11.24,38.3
0.0,1.202,3.041,5.092,83.0,11.24,38.28
0.102,2.134,3.046,5.086,83.0,11.24,38.24
-0.03,1.637,3.05,5.081,83.0,11.23,38.17
-0.092,1.347,3.051,5.077,83.0,11.24,38.14
-0.072,1.492,3.053,5.072,83.0,11.23,38.09
-0.079,1.927,3.054,5.07,83.0,11.24,38.02
-0.061,1.16,3.055,5.067,83.0,11.24,37.98
-0.123,1.285,3.055,5.065,83.0,11.24,38.03
0.17,1.16,3.058,5.065,83.0,11.24,38.08
-0.089,1.264,3.059,5.067,83.0,11.24,38.08
-0.065,1.16,3.061,5.072,83.0,11.24,38.03
-0.009,1.43,3.064,5.077,83.0,11.24,37.97
0.102,1.243,3.065,5.082,83.0,11.23,37.92
0.034,1.885,3.068,5.091,83.0,11.24,37.86
-0.076,1.885,3.071,5.098,82.0,11.24,37.82
-0.062,2.01,3.074,5.111,82.0,11.24,37.77
-0.066,1.72,3.076,5.122,82.0,11.24,37.68
-0.032,1.865,3.08,5.137,82.0,11.24,37.64
-0.086,1.512,3.086,5.15,82.0,11.24,37.65
-0.011,1.367,3.088,5.164,82.0,11.24,37.62
0.145,1.823,3.09,5.181,82.0,11.24,37.54
-0.032,2.238,3.091,5.197,82.0,11.24,37.44
0.027,0.725,3.094,5.213,82.0,11.24,37.37
0.141,1.533,3.096,5.226,82.0,11.24,37.39
0.171,4.164,3.098,5.244,82.0,11.24,37.51
0.018,1.927,3.1,5.261,82.0,11.24,37.68
0.025,2.196,3.101,5.279,82.0,11.24,37.77
0.026,2.673,3.103,5.295,82.0,11.24,37.83
0.058,2.072,3.106,5.313,82.0,11.24,37.75
-0.003,2.528,3.107,5.331,82.0,11.24,37.74
-0.005,1.782,3.108,5.347,82.0,11.24,37.84
0.271,1.802,3.112,5.368,81.0,11.24,37.75
0.013,1.678,3.116,5.387,81.0,11.24,37.6
0.045,1.347,3.124,5.404,81.0,11.24,37.56
0.134,0.829,3.133,5.427,81.0,11.24,37.7
0.186,1.119,3.139,5.454,81.0,11.24,37.79
0.012,1.595,3.147,5.486,81.0,11.24,37.7
-0.003,1.036,3.157,5.516,81.0,11.24,37.67
-0.002,1.119,3.166,5.541,81.0,11.24,37.65
-0.007,1.823,3.174,5.561,81.0,11.24,37.6
0.009,1.036,3.182,5.578,81.0,11.24,37.58
-0.051,1.471,3.19,5.603,81.0,11.24,37.49
0.22,1.16,3.198,5.634,81.0,11.24,37.37
-0.008,1.326,3.206,5.665,81.0,11.24,37.28
-0.006,1.098,3.219,5.705,81.0,11.24,37.2
0.046,1.305,3.229,5.747,81.0,11.24,37.13
0.166,1.72,3.24,5.776,81.0,11.24,37.17
0.114,1.492,3.254,5.801,81.0,11.24,37.17
-0.013,1.43,3.266,5.816,81.0,11.24,37.1
0.0,1.554,3.276,5.829,81.0,11.24,37.1
-0.002,1.243,3.285,5.845,81.0,11.24,37.11
-0.014,1.699,3.292,5.87,81.0,11.24,37.12
0.013,2.61,3.3,5.884,81.0,11.24,37.17
-0.033,1.782,3.306,5.898,81.0,11.24,37.23
-0.041,1.885,3.312,5.915,81.0,11.24,37.23
0.247,1.305,3.317,5.935,81.0,11.24,37.19
-0.028,1.098,3.325,5.956,81.0,11.24,37.07
0.009,0.331,3.332,5.977,81.0,11.24,36.96
0.099,0.29,3.34,5.999,81.0,11.24,36.97
0.173,0.228,3.345,6.018,81.0,11.24,36.95
-0.006,0.228,3.352,6.037,81.0,11.24,36.97
-0.017,0.269,3.361,6.075,81.0,11.24,36.92
-0.016,0.269,3.37,6.108,81.0,11.24,36.89
-0.03,0.249,3.379,6.149,81.0,11.24,36.77
0.003,0.29,3.388,6.192,81.0,11.24,36.77
-0.066,0.394,3.397,6.223,81.0,11.24,36.72
-0.003,0.642,3.414,6.281,81.0,11.24,36.65
0.152,0.601,3.413,6.284,81.0,11.24,36.64
-0.044,0.249,3.422,6.323,81.0,11.24,36.61
-0.005,0.186,3.433,6.349,81.0,11.24,36.64
0.091,0.352,3.449,6.365,81.0,11.24,36.69
0.113,0.249,3.474,6.382,81.0,11.24,36.75
-0.057,0.249,3.487,6.405,81.0,11.24,36.85
-0.058,0.228,3.497,6.412,81.0,11.24,37.03
-0.054,0.249,3.505,6.414,81.0,11.24,37.09
-0.06,0.228,3.511,6.418,81.0,11.23,36.98
-0.032,0.207,3.519,6.428,81.0,11.23,36.85
-0.096,0.207,3.526,6.452,81.0,11.23,36.82
0.128,0.601,3.535,6.452,81.0,11.24,36.83
-0.008,0.539,3.543,6.446,81.0,11.24,36.87
-0.05,0.228,3.551,6.435,81.0,11.23,36.91
-0.001,0.249,3.561,6.421,79.0,11.24,36.92
0.106,0.228,3.568,6.408,79.0,11.24,36.88
0.074,0.29,3.576,6.402,79.0,11.24,36.86
-0.065,0.269,3.584,6.402,79.0,11.23,36.87
-0.054,0.228,3.596,6.414,79.0,11.24,36.87
-0.056,0.311,3.603,6.434,79.0,11.24,36.79
-0.065,0.269,3.608,6.455,79.0,11.24,36.69
-0.028,0.249,3.613,6.479,79.0,11.24,36.65
-0.088,0.29,3.616,6.508,79.0,11.24,36.63
-0.016,0.435,3.621,6.539,79.0,11.24,36.62
0.134,0.622,3.623,6.581,79.0,11.24,36.58
-0.056,0.269,3.628,6.631,79.0,11.24,36.55
-0.014,0.207,3.633,6.677,79.0,11.24,36.54
0.086,0.228,3.645,6.734,75.0,11.24,36.51
0.111,0.249,3.654,6.778,75.0,11.24,36.48
-0.06,0.228,3.662,6.797,75.0,11.24,36.43
-0.063,0.228,3.672,6.823,75.0,11.24,36.43
-0.06,0.207,3.686,6.853,75.0,11.23,36.42
-0.073,0.249,3.694,6.914,75.0,11.23,36.37
-0.037,0.228,3.706,6.967,75.0,11.23,36.32
-0.099,0.269,3.716,6.999,75.0,11.23,36.34
-0.019,0.477,3.73,7.039,75.0,11.23,36.35
0.128,0.684,3.746,7.127,75.0,11.23,36.35
-0.06,0.249,3.761,7.202,75.0,11.24,36.31
-0.019,0.228,3.772,7.272,75.0,11.23,36.31
0.082,0.249,3.783,7.3,77.0,11.23,36.31
0.108,0.207,3.795,7.331,77.0,11.23,36.31
-0.057,0.249,3.805,7.358,77.0,11.23,36.31
-0.058,0.249,3.817,7.378,77.0,11.23,36.27
-0.051,0.269,3.828,7.379,77.0,11.23,36.25
-0.054,0.249,3.842,7.374,77.0,11.23,36.22
-0.027,0.269,3.854,7.368,77.0,11.23,36.21
-0.091,0.249,3.868,7.348,77.0,11.23,36.21
0.142,0.601,3.879,7.335,77.0,11.23,36.25
0.002,0.477,3.889,7.325,77.0,11.23,36.25
-0.04,0.228,3.897,7.309,77.0,11.23,36.23
0.008,0.249,3.905,7.286,79.0,11.23,36.2
0.123,0.249,3.912,7.272,79.0,11.23,36.2
0.092,0.249,3.92,7.266,79.0,11.23,36.21
-0.052,0.249,3.927,7.26,79.0,11.23,36.21
-0.044,0.228,3.945,7.247,79.0,11.23,36.2
-0.043,0.269,3.96,7.245,79.0,11.23,36.14
-0.038,0.228,3.966,7.243,79.0,11.23,36.1
-0.033,0.207,3.971,7.234,79.0,11.23,36.1
-0.082,0.249,3.975,7.226,79.0,11.23,36.11
0.22,0.746,3.979,7.214,79.0,11.23,36.11
-0.051,0.394,3.983,7.205,79.0,11.24,36.11
-0.025,0.249,3.988,7.199,79.0,11.23,36.1
0.036,0.228,3.993,7.197,78.0,11.23,36.12
0.159,0.207,3.999,7.201,78.0,11.23,36.11
0.05,0.249,4.006,7.213,78.0,11.23,36.12
-0.044,0.269,4.008,7.221,78.0,11.23,36.14
-0.033,0.269,4.013,7.238,78.0,11.23,36.16
-0.039,0.311,4.016,7.265,78.0,11.23,36.15
-0.046,0.352,4.02,7.292,78.0,11.23,36.14
-0.015,0.249,4.023,7.324,78.0,11.23,36.17
-0.076,0.311,4.031,7.364,78.0,11.23,36.23
0.182,0.622,4.038,7.419,78.0,11.23,36.3
-0.017,0.58,4.046,7.465,78.0,11.23,36.38
-0.027,0.228,4.054,7.507,78.0,11.23,36.46
0.021,0.249,4.065,7.55,76.0,11.23,36.53
0.135,0.249,4.078,7.589,76.0,11.23,36.61
0.095,0.269,4.094,7.639,76.0,11.23,36.7
-0.045,0.249,4.113,7.681,76.0,11.23,36.79
-0.033,0.249,4.136,7.711,76.0,11.23,36.89
-0.031,0.228,4.165,7.73,76.0,11.23,36.93
-0.004,0.228,4.19,7.747,76.0,11.23,36.97
-0.044,0.207,4.211,7.773,76.0,11.23,37.06
-0.07,0.394,4.23,7.792,76.0,11.23,37.13
0.245,0.767,4.249,7.812,76.0,11.23,37.24
-0.014,0.269,4.269,7.839,76.0,11.23,37.33
0.024,0.249,4.298,7.869,76.0,11.23,37.41
0.105,0.269,4.335,7.882,76.0,11.23,37.51
0.185,0.249,4.366,7.887,76.0,11.23,37.62
0.017,0.249,4.396,7.883,76.0,11.23,37.74
-0.005,0.249,4.422,7.863,80.0,11.23,37.85
0.008,0.269,4.451,7.873,80.0,11.23,37.95
0.037,0.249,4.47,7.857,80.0,11.23,38.05
-0.014,0.269,4.488,7.843,80.0,11.23,38.16
-0.037,0.352,4.505,7.834,80.0,11.23,38.27
0.283,0.704,4.525,7.812,80.0,11.24,38.36
0.011,0.228,4.551,7.784,80.0,11.23,38.43
0.048,0.269,4.575,7.76,80.0,11.23,38.47
0.129,0.269,4.59,7.736,80.0,11.23,38.53
0.19,0.207,4.605,7.715,80.0,11.23,38.57
0.011,0.249,4.62,7.71,80.0,11.23,38.59
-0.004,0.249,4.643,7.694,84.0,11.23,38.6
0.011,0.228,4.677,7.678,84.0,11.23,38.56
0.034,0.228,4.702,7.664,84.0,11.23,38.5
-0.039,0.249,4.717,7.665,84.0,11.23,38.46
0.037,0.497,4.732,7.653,84.0,11.23,38.4
0.188,0.663,4.742,7.634,84.0,11.23,38.33
-0.015,0.249,4.752,7.617,84.0,11.23,38.25
0.025,0.228,4.767,7.599,84.0,11.23,38.16
0.125,0.207,4.784,7.587,86.0,11.23,38.06
0.125,0.228,4.796,7.577,86.0,11.23,37.96
-0.039,0.228,4.811,7.568,86.0,11.23,37.89
-0.038,0.207,4.825,7.559,86.0,11.23,37.79
-0.032,0.249,4.845,7.551,86.0,11.23,37.69
-0.046,0.228,4.87,7.55,86.0,11.23,37.58
-0.013,0.249,4.882,7.546,86.0,11.23,37.49
-0.075,0.207,4.891,7.545,86.0,11.23,37.41
-0.009,0.477,4.897,7.543,86.0,11.23,37.35
0.173,0.601,4.901,7.545,86.0,11.23,37.29
-0.043,0.228,4.907,7.547,86.0,11.23,37.2
-0.006,0.29,4.914,7.56,86.0,11.23,37.15
0.095,0.249,4.924,7.568,77.0,11.23,37.13
0.124,0.249,4.931,7.567,77.0,11.23,37.1
-0.051,0.269,4.936,7.566,77.0,11.23,37.06
-0.054,0.228,4.941,7.565,77.0,11.23,37.01
-0.046,0.249,4.946,7.565,77.0,11.23,36.94
-0.058,0.249,4.952,7.567,77.0,11.23,36.88
-0.066,0.228,4.958,7.566,77.0,11.23,36.86
-0.048,0.249,4.963,7.565,77.0,11.23,36.82
-0.059,0.207,4.975,7.566,77.0,11.23,36.81
-0.086,0.331,4.99,7.563,77.0,11.23,36.79
0.24,0.704,5.0,7.558,77.0,11.23,36.76
-0.038,0.29,5.006,7.555,77.0,11.23,36.74
-0.016,0.249,5.013,7.551,77.0,11.23,36.74
0.057,0.249,5.018,7.554,69.0,11.23,36.71
0.173,0.228,5.025,7.552,69.0,11.23,36.71
0.009,0.249,5.03,7.546,69.0,11.23,36.71
-0.045,0.249,5.039,7.537,69.0,11.23,36.71
-0.032,0.228,5.046,7.527,69.0,11.23,36.7
-0.04,0.207,5.052,7.517,69.0,11.23,36.63
-0.054,0.186,5.057,7.51,69.0,11.23,36.6
-0.059,0.249,5.062,7.5,69.0,11.23,36.59
-0.056,0.228,5.071,7.494,69.0,11.23,36.59
-0.028,0.269,5.077,7.487,69.0,11.23,36.57
-0.064,0.269,5.082,7.48,69.0,11.23,36.57
-0.044,0.394,5.09,7.472,69.0,11.23,36.56
0.228,0.663,5.095,7.464,69.0,11.23,36.58
-0.027,0.228,5.097,7.455,69.0,11.24,36.58
0.003,0.249,5.1,7.447,69.0,11.23,36.58
0.097,0.269,5.102,7.439,63.0,11.23,36.58
0.173,0.249,5.105,7.431,63.0,11.23,36.59
-0.021,0.228,5.112,7.424,63.0,11.23,36.61
-0.043,0.186,5.12,7.417,63.0,11.24,36.62
-0.033,0.228,5.126,7.412,63.0,11.23,36.61
-0.044,0.249,5.133,7.407,63.0,11.23,36.56
-0.052,0.228,5.137,7.4,63.0,11.23,36.58
-0.053,0.269,5.142,7.396,63.0,11.23,36.61
-0.052,0.228,5.144,7.392,63.0,11.23,36.67
-0.013,0.207,5.148,7.387,63.0,11.23,36.7
-0.056,0.207,5.152,7.379,63.0,11.23,36.75
0.218,0.601,5.157,7.373,63.0,11.23,36.79
0.009,0.477,5.159,7.365,63.0,11.23,36.84
-0.004,0.228,5.167,7.358,63.0,11.23,36.89
0.042,0.269,5.174,7.348,63.0,11.23,36.96
0.161,0.249,5.179,7.339,63.0,11.23,37.01
0.128,0.249,5.184,7.331,63.0,11.23,37.06
-0.034,0.249,5.188,7.321,63.0,11.23,37.12
-0.027,0.249,5.191,7.311,63.0,11.23,37.17
-0.022,0.269,5.191,7.302,63.0,11.23,37.18
-0.033,0.269,5.189,7.292,63.0,11.23,37.19
-0.037,0.228,5.188,7.281,63.0,11.23,37.25
-0.005,0.269,5.188,7.273,63.0,11.23,37.31
-0.053,0.249,5.187,7.263,63.0,11.23,37.38
0.197,0.663,5.188,7.255,63.0,11.23,37.44
0.03,0.642,5.186,7.244,63.0,11.23,37.5
0.007,0.311,5.186,7.236,63.0,11.23,37.58
0.054,0.207,5.183,7.228,63.0,11.23,37.64
0.173,0.207,5.183,7.219,63.0,11.23,37.72
0.141,0.269,5.183,7.211,63.0,11.23,37.78
-0.018,0.228,5.183,7.203,71.0,11.23,37.84
-0.011,0.269,5.183,7.195,71.0,11.23,37.87
-0.009,0.207,5.183,7.19,71.0,11.26,37.84
-0.021,0.228,5.183,7.184,71.0,11.17,37.82
0.006,0.249,5.186,7.174,71.0,11.21,37.82
-0.048,0.249,5.186,7.168,71.0,11.21,37.81
0.07,0.58,5.186,7.16,71.0,11.12,37.87
0.155,0.663,5.184,7.153,71.0,11.05,37.87
-0.003,0.249,5.183,7.146,71.0,11.16,37.86
0.044,0.207,5.182,7.137,76.0,11.1,37.9
0.154,0.269,5.184,7.131,76.0,11.12,37.9
0.158,0.249,5.186,7.123,76.0,11.18,37.91
-0.023,0.207,5.186,7.117,76.0,11.23,37.92
-0.027,0.228,5.184,7.115,76.0,11.35,37.97
-0.019,0.228,5.183,7.108,76.0,11.33,37.96
0.008,0.249,5.181,7.101,76.0,11.35,37.91
-0.061,0.186,5.178,7.092,76.0,11.64,37.85
-0.024,0.435,5.178,7.086,76.0,12.11,37.78
0.203,0.684,5.177,7.079,76.0,13.15,37.75
-0.035,0.269,5.176,7.073,76.0,13.08,37.73
0.001,0.207,5.174,7.066,76.0,12.28,37.69
0.106,0.228,5.173,7.059,83.0,11.99,37.64
0.146,0.249,5.171,7.051,83.0,11.76,37.58
-0.036,0.249,5.168,7.046,83.0,11.72,37.51
-0.043,0.269,5.168,7.04,83.0,12.01,37.45
-0.014,0.249,5.166,7.034,83.0,12.26,37.36
-0.029,0.311,5.166,7.029,83.0,12.14,37.26
-0.082,0.249,5.163,7.022,83.0,12.44,37.17
0.216,0.684,5.163,7.018,83.0,12.6,37.12
-0.058,0.331,5.163,7.014,83.0,12.51,37.05
-0.038,0.249,5.164,7.01,83.0,12.36,36.99
0.022,0.269,5.167,7.008,88.0,12.36,36.94
0.145,0.249,5.168,7.005,88.0,12.53,36.88
0.018,0.207,5.171,7.001,88.0,12.59,36.84
-0.058,0.249,5.174,6.996,88.0,12.51,36.8
-0.042,0.269,5.177,6.993,88.0,12.56,36.76
-0.041,0.249,5.179,6.986,88.0,12.54,36.65
-0.033,0.228,5.179,6.981,88.0,12.56,36.59
-0.099,0.249,5.178,6.975,88.0,12.61,36.57
0.115,0.663,5.176,6.969,88.0,12.61,36.57
0.02,0.477,5.174,6.964,88.0,12.65,36.54
-0.052,0.207,5.173,6.959,88.0,12.66,36.52
-0.008,0.228,5.171,6.952,81.0,12.69,36.48
0.109,0.311,5.171,6.947,81.0,12.62,36.48
0.084,0.228,5.171,6.939,81.0,12.73,36.47
-0.068,0.249,5.171,6.934,81.0,12.64,36.48
-0.063,0.29,5.172,6.927,81.0,12.54,36.49
-0.063,0.249,5.177,6.92,81.0,12.4,36.47
-0.074,0.228,5.178,6.914,81.0,12.38,36.44
-0.042,0.269,5.178,6.907,81.0,12.17,36.42
-0.104,0.228,5.178,6.9,81.0,12.11,36.43
0.067,0.642,5.178,6.894,81.0,12.03,36.43
0.048,0.58,5.178,6.89,81.0,11.6,36.44
-0.057,0.249,5.176,6.882,81.0,11.35,36.47
-0.016,0.249,5.176,6.877,77.0,11.32,36.49
0.094,0.373,5.173,6.87,77.0,11.33,36.48
0.094,0.269,5.171,6.865,77.0,11.51,36.49
-0.064,0.311,5.171,6.86,77.0,11.56,36.47
-0.06,0.29,5.168,6.855,77.0,11.57,36.5
-0.058,0.331,5.171,6.85,77.0,11.46,36.52
-0.071,0.269,5.171,6.845,77.0,11.4,36.52
-0.04,0.249,5.171,6.84,77.0,11.57,36.59
-0.094,0.29,5.173,6.835,77.0,11.67,36.65
0.002,0.539,5.174,6.831,77.0,11.56,36.71
0.123,0.559,5.173,6.827,77.0,11.53,36.76
-0.052,0.228,5.173,6.822,77.0,11.18,36.85
-0.012,0.249,5.173,6.82,77.0,11.32,36.96
0.09,0.249,5.171,6.817,76.0,12.09,37.07
0.11,0.249,5.168,6.814,76.0,12.18,37.13
-0.06,0.228,5.167,6.81,76.0,12.45,37.17
-0.055,0.29,5.166,6.805,76.0,12.04,37.24
-0.046,0.269,5.163,6.803,76.0,11.15,37.28
-0.035,0.249,5.161,6.798,76.0,11.01,37.34
-0.044,0.269,5.158,6.793,76.0,11.01,37.42
-0.082,0.29,5.158,6.788,76.0,11.01,37.5
0.224,0.746,5.156,6.783,76.0,11.15,37.57
-0.045,0.352,5.153,6.778,76.0,11.31,37.62
-0.011,0.29,5.152,6.773,76.0,11.33,37.68
0.052,0.269,5.149,6.768,80.0,11.54,37.74
0.159,0.311,5.147,6.763,80.0,11.64,37.81
0.02,0.207,5.144,6.758,80.0,11.76,37.88
-0.046,0.311,5.142,6.754,80.0,11.88,37.92
-0.03,0.269,5.141,6.75,80.0,11.9,37.93
-0.036,0.269,5.138,6.749,80.0,11.96,37.92
-0.01,0.269,5.137,6.745,80.0,12.06,37.94
-0.08,0.186,5.136,6.74,80.0,12.01,37.97
0.002,0.518,5.136,6.735,80.0,11.95,37.96
0.152,0.642,5.133,6.73,80.0,11.96,37.93
-0.045,0.228,5.133,6.725,80.0,12.01,37.86
-0.003,0.207,5.131,6.72,80.0,12.01,37.8
0.096,0.269,5.131,6.717,80.0,11.99,37.75
0.105,0.269,5.128,6.713,80.0,12.03,37.7
-0.059,0.269,5.128,6.711,80.0,11.98,37.66
-0.055,0.29,5.128,6.707,80.0,12.03,37.63
-0.047,0.228,5.128,6.705,80.0,12.05,37.56
-0.03,0.311,5.133,6.705,80.0,12.07,37.48
-0.036,0.311,5.136,6.706,80.0,12.06,37.43
-0.088,0.29,5.133,6.708,80.0,11.98,37.39
0.03,0.539,5.134,6.714,80.0,11.83,37.37
0.118,0.622,5.133,6.721,80.0,11.71,37.33
-0.05,0.249,5.134,6.741,80.0,11.77,37.27
-0.011,0.207,5.134,6.743,78.0,11.89,37.26
0.095,0.269,5.133,6.753,78.0,11.89,37.24
0.101,0.311,5.133,6.764,78.0,11.92,37.21
-0.067,0.207,5.132,6.774,78.0,11.78,37.19
-0.067,0.249,5.132,6.785,78.0,11.61,37.17
-0.06,0.207,5.131,6.794,78.0,11.39,37.11
-0.074,0.249,5.131,6.804,78.0,11.05,37.02
-0.068,0.29,5.131,6.81,78.0,11.09,36.97
-0.064,0.207,5.131,6.815,78.0,11.2,36.95
-0.106,0.249,5.131,6.82,78.0,11.31,36.92
0.206,0.746,5.131,6.824,78.0,11.15,36.91
-0.07,0.249,5.128,6.826,78.0,11.23,36.88
-0.051,0.207,5.131,6.826,78.0,11.46,36.88
0.01,0.249,5.131,6.826,73.0,11.21,36.87
0.136,0.29,5.132,6.826,73.0,11.16,36.87
0.008,0.269,5.131,6.824,73.0,11.05,36.86
-0.077,0.29,5.132,6.822,73.0,10.95,36.85
-0.064,0.228,5.132,6.817,73.0,10.89,36.84
-0.066,0.29,5.131,6.812,73.0,10.85,36.79
-0.08,0.249,5.131,6.807,73.0,10.83,36.73
-0.081,0.269,5.131,6.8,73.0,10.83,36.67
-0.057,0.207,5.131,6.794,73.0,10.83,36.63
-0.104,0.269,5.131,6.788,73.0,10.83,36.59
0.202,0.684,5.131,6.78,73.0,10.84,36.54
-0.067,0.518,5.131,6.773,73.0,10.82,36.51
-0.051,0.228,5.131,6.764,73.0,10.82,36.49
0.0,0.269,5.129,6.756,70.0,10.83,36.47
0.129,0.269,5.131,6.746,70.0,10.83,36.45
0.051,0.29,5.131,6.739,70.0,10.84,36.43
-0.074,0.269,5.129,6.73,70.0,10.85,36.42
-0.067,0.269,5.128,6.723,70.0,10.87,36.43
-0.069,0.311,5.128,6.716,70.0,10.88,36.37
-0.079,0.29,5.126,6.707,70.0,10.85,36.32
-0.084,0.269,5.127,6.697,70.0,10.94,36.3
-0.052,0.249,5.127,6.688,70.0,11.13,36.3
-0.105,0.228,5.128,6.681,70.0,11.34,36.3
0.127,0.622,5.129,6.673,70.0,11.95,36.3
-0.001,0.497,5.128,6.667,70.0,13.58,36.3
-0.055,0.269,5.127,6.661,70.0,16.25,36.32
-0.012,0.249,5.126,6.653,70.0,21.77,36.35
0.106,0.249,5.124,6.648,70.0,32.21,36.36
0.086,0.228,5.122,6.641,70.0,57.06,36.37
-0.074,0.269,5.12,6.634,70.0,75.6,36.37
-0.069,0.249,5.119,6.628,70.0,81.79,36.41
-0.064,0.249,5.121,6.622,70.0,85.15,36.38
-0.074,0.228,5.121,6.616,70.0,85.74,36.37
-0.082,0.311,5.121,6.61,70.0,83.8,36.37
-0.064,0.207,5.121,6.604,70.0,65.62,36.42
-0.069,0.352,5.12,6.597,70.0,20.35,36.46
-0.1,0.249,5.119,6.591,70.0,16.62,36.5
0.218,0.808,5.117,6.586,70.0,16.3,36.55
-0.048,0.311,5.115,6.581,70.0,16.32,36.63
-0.023,0.249,5.112,6.576,70.0,17.81,36.69
0.047,0.269,5.109,6.569,68.0,22.66,36.76
0.162,0.29,5.107,6.564,68.0,51.29,36.84
-0.002,0.249,5.105,6.559,68.0,68.76,36.9
-0.064,0.249,5.101,6.554,68.0,78.98,36.97
-0.049,0.29,5.1,6.547,68.0,80.37,37.02
-0.057,0.249,5.097,6.541,68.0,65.8,37.03
-0.066,0.228,5.096,6.535,68.0,29.11,37.06
-0.036,0.249,5.095,6.529,68.0,18.92,37.11
-0.079,0.249,5.092,6.524,68.0,16.36,37.17
-0.022,0.539,5.09,6.519,68.0,15.31,37.24
0.171,0.58,5.086,6.514,68.0,14.96,37.3
0.002,0.269,5.085,6.509,68.0,14.77,37.36
0.026,0.269,5.082,6.504,68.0,14.71,37.44
0.109,0.228,5.08,6.499,68.0,14.49,37.5
0.142,0.228,5.076,6.494,68.0,14.47,37.57
-0.038,0.228,5.073,6.489,68.0,14.39,37.62
-0.044,0.249,5.067,6.48,73.0,14.38,37.68
-0.038,0.249,5.069,6.479,73.0,14.31,37.68
-0.05,0.228,5.066,6.474,73.0,14.28,37.69
-0.025,0.311,5.062,6.469,73.0,14.25,37.71
-0.079,0.269,5.061,6.464,73.0,14.32,37.73
0.173,0.642,5.059,6.459,73.0,14.28,37.73
-0.001,0.518,5.056,6.454,73.0,14.22,37.71
-0.03,0.311,5.054,6.45,73.0,14.13,37.69
0.014,0.228,5.052,6.447,79.0,13.86,37.65
0.124,0.311,5.049,6.442,79.0,13.88,37.62
0.082,0.29,5.046,6.437,79.0,13.86,37.59
-0.065,0.29,5.045,6.435,79.0,13.8,37.56
-0.056,0.249,5.044,6.431,79.0,13.72,37.53
-0.055,0.249,5.041,6.427,79.0,13.72,37.46
-0.063,0.29,5.039,6.425,79.0,13.67,37.38
-0.05,0.269,5.038,6.421,79.0,13.66,37.34
-0.097,0.207,5.034,6.42,79.0,13.58,37.3
0.219,0.704,5.032,6.421,79.0,13.53,37.26
-0.065,0.414,5.03,6.421,79.0,13.52,37.22
-0.045,0.29,5.028,6.42,79.0,13.56,37.16
0.013,0.269,5.025,6.419,78.0,13.6,37.11
0.134,0.249,5.023,6.419,78.0,13.49,37.05
0.019,0.269,5.022,6.419,78.0,13.48,37.0
-0.078,0.269,5.019,6.419,78.0,13.49,36.94
-0.068,0.331,5.019,6.42,78.0,13.45,36.89
-0.07,0.29,5.017,6.421,78.0,13.43,36.79
-0.081,0.269,5.017,6.421,78.0,13.43,36.72
-0.054,0.249,5.017,6.421,78.0,13.41,36.67
-0.11,0.249,5.017,6.422,78.0,13.39,36.64
0.174,0.601,5.017,6.421,78.0,13.37,36.61
-0.058,0.518,5.018,6.421,78.0,13.36,36.59
-0.059,0.207,5.018,6.42,78.0,13.33,36.57
-0.009,0.331,5.017,6.416,76.0,13.32,36.57
0.112,0.269,5.017,6.414,76.0,13.31,36.54
0.057,0.311,5.017,6.41,76.0,13.28,36.53
-0.078,0.269,5.017,6.402,76.0,13.27,36.51
-0.066,0.269,5.017,6.4,76.0,13.26,36.49
-0.072,0.228,5.017,6.397,76.0,13.25,36.45
-0.078,0.228,5.017,6.392,76.0,13.23,36.38
-0.055,0.29,5.014,6.387,76.0,13.22,36.37
-0.082,0.249,5.015,6.382,76.0,13.21,36.36
-0.102,0.414,5.014,6.376,76.0,13.2,36.36
0.219,0.684,5.015,6.366,76.0,13.2,36.36
-0.056,0.311,5.015,6.366,76.0,13.19,36.36
-0.029,0.331,5.013,6.36,76.0,13.17,36.37
0.054,0.352,5.012,6.355,74.0,13.16,36.38
0.153,0.331,5.012,6.35,74.0,13.15,36.39
-0.029,0.249,5.012,6.345,74.0,13.15,36.4
-0.061,0.269,5.012,6.34,74.0,13.14,36.42
-0.049,0.249,5.009,6.333,74.0,13.12,36.42
-0.056,0.269,5.009,6.33,74.0,13.11,36.39
-0.065,0.269,5.007,6.324,74.0,13.1,36.38
-0.033,0.249,5.005,6.318,74.0,13.1,36.43
-0.084,0.269,5.004,6.313,74.0,13.09,36.47
0.187,0.725,5.002,6.31,74.0,13.08,36.51
-0.026,0.601,5.0,6.305,74.0,13.06,36.54
-0.033,0.29,4.997,6.3,74.0,13.06,36.58
0.013,0.249,4.995,6.294,74.0,13.05,36.65
0.13,0.249,4.993,6.29,74.0,13.05,36.72
0.085,0.29,4.992,6.285,74.0,13.04,36.78
-0.056,0.29,4.989,6.28,74.0,13.03,36.84
-0.045,0.331,4.987,6.275,74.0,13.01,36.92
-0.042,0.331,4.984,6.271,74.0,13.01,36.95
-0.052,0.29,4.98,6.266,74.0,13.0,36.98
-0.027,0.249,4.979,6.259,74.0,13.0,37.05
-0.078,0.249,4.977,6.254,74.0,12.99,37.12
0.22,0.787,4.977,6.25,74.0,12.99,37.2
-0.044,0.456,4.974,6.246,74.0,12.98,37.29
-0.015,0.249,4.972,6.241,74.0,12.98,37.36
0.131,0.311,4.969,6.236,78.0,12.97,37.43
0.172,0.331,4.967,6.232,78.0,12.97,37.51
0.076,0.269,4.964,6.226,78.0,12.95,37.58
-0.041,0.269,4.963,6.223,78.0,12.95,37.66
-0.025,0.269,4.959,6.218,78.0,12.94,37.71
-0.026,0.29,4.952,6.209,78.0,12.93,37.77
0.0,0.352,4.954,6.21,78.0,12.93,37.76
-0.05,0.269,4.952,6.203,78.0,12.93,37.81
-0.07,0.352,4.95,6.198,78.0,12.92,37.86
0.252,0.746,4.946,6.196,78.0,12.92,37.91
-0.025,0.269,4.943,6.191,78.0,12.9,37.93
0.009,0.269,4.94,6.186,78.0,12.9,37.97
0.092,0.29,4.938,6.181,78.0,12.9,38.0
0.158,0.249,4.935,6.179,78.0,12.89,38.02
-0.019,0.249,4.932,6.174,78.0,12.89,38.04
-0.04,0.269,4.93,6.171,80.0,12.88,38.04
-0.028,0.311,4.928,6.168,80.0,12.88,37.99
-0.028,0.29,4.925,6.164,80.0,12.87,37.93
-0.018,0.311,4.922,6.161,80.0,12.87,37.93
-0.077,0.311,4.92,6.159,80.0,12.86,37.89
0.217,0.684,4.918,6.158,80.0,12.86,37.87
-0.032,0.58,4.916,6.155,80.0,12.86,37.81
-0.031,0.269,4.915,6.155,80.0,12.86,37.75
0.017,0.269,4.913,6.155,80.0,12.84,37.71
0.13,0.269,4.911,6.158,80.0,12.84,37.68
0.062,0.269,4.91,6.158,80.0,12.83,37.64
-0.065,0.311,4.907,6.16,80.0,12.83,37.59
-0.054,0.311,4.906,6.161,80.0,12.83,37.56
-0.05,0.29,4.905,6.163,80.0,12.82,37.49
-0.064,0.29,4.902,6.163,80.0,12.82,37.42
-0.068,0.311,4.901,6.163,80.0,12.82,37.39
-0.045,0.311,4.9,6.163,80.0,12.81,37.36
-0.092,0.249,4.898,6.163,80.0,12.81,37.33
0.209,0.601,4.897,6.16,80.0,12.81,37.29
-0.05,0.559,4.897,6.16,80.0,12.81,37.25
-0.044,0.29,4.897,6.158,80.0,12.8,37.2
0.003,0.228,4.897,6.156,71.0,12.8,37.15
0.123,0.311,4.896,6.154,71.0,12.8,37.1
0.057,0.331,4.895,6.151,71.0,12.78,37.05
-0.08,0.269,4.895,6.149,71.0,12.78,37.0
-0.073,0.228,4.895,6.146,71.0,12.78,36.95
-0.071,0.311,4.895,6.141,71.0,12.77,36.84
-0.085,0.249,4.895,6.136,71.0,12.77,36.73
-0.09,0.207,4.895,6.131,71.0,12.77,36.64
-0.058,0.269,4.895,6.126,71.0,12.77,36.6
-0.108,0.249,4.895,6.121,71.0,12.76,36.58
0.097,0.601,4.893,6.118,71.0,12.76,36.53
0.024,0.58,4.892,6.111,71.0,12.76,36.52
-0.06,0.394,4.892,6.106,71.0,12.76,36.5
-0.018,0.29,4.891,6.101,70.0,12.76,36.49
0.097,0.249,4.888,6.097,70.0,12.75,36.49
0.088,0.269,4.887,6.092,70.0,12.75,36.49
-0.076,0.29,4.885,6.087,70.0,12.75,36.49
-0.072,0.249,4.885,6.082,70.0,12.75,36.5
-0.067,0.29,4.882,6.078,70.0,12.73,36.47
-0.079,0.269,4.882,6.074,70.0,12.73,36.42
-0.084,0.269,4.88,6.067,70.0,12.73,36.42
-0.077,0.249,4.877,6.062,70.0,12.73,36.43
-0.059,0.269,4.877,6.057,70.0,12.73,36.44
-0.099,0.269,4.875,6.053,70.0,12.72,36.45
0.215,0.684,4.873,6.047,70.0,12.72,36.46
-0.059,0.331,4.871,6.042,70.0,12.72,36.49
-0.036,0.228,4.87,6.039,70.0,12.71,36.52
0.023,0.311,4.867,6.034,68.0,12.71,36.55
0.153,0.311,4.865,6.029,68.0,12.71,36.61
0.04,0.311,4.863,6.024,68.0,12.71,36.65
-0.065,0.269,4.861,6.022,68.0,12.71,36.71
-0.052,0.249,4.86,6.017,68.0,12.71,36.76
-0.051,0.269,4.856,6.013,68.0,12.7,36.76
-0.06,0.269,4.854,6.01,68.0,12.7,36.77
-0.061,0.29,4.851,6.004,68.0,12.7,36.85
-0.034,0.269,4.849,6.0,68.0,12.7,36.94
-0.082,0.29,4.848,5.995,68.0,12.7,37.02
0.224,0.642,4.845,5.992,68.0,12.69,37.1
-0.053,0.414,4.844,5.987,68.0,12.69,37.17
-0.023,0.269,4.84,5.984,68.0,12.69,37.27
0.03,0.373,4.839,5.98,70.0,12.69,37.33
0.154,0.269,4.838,5.977,70.0,12.69,37.4
0.073,0.311,4.835,5.974,70.0,12.67,37.47
-0.049,0.311,4.833,5.97,70.0,12.67,37.53
-0.032,0.29,4.83,5.966,70.0,12.67,37.59
-0.031,0.331,4.828,5.962,70.0,12.67,37.62
-0.041,0.29,4.826,5.96,70.0,12.67,37.69
-0.018,0.269,4.825,5.955,70.0,12.67,37.77
-0.069,0.331,4.825,5.951,70.0,12.66,37.81
0.23,0.684,4.825,5.947,70.0,12.66,37.87
-0.035,0.497,4.824,5.944,70.0,12.66,37.9
-0.014,0.29,4.823,5.941,70.0,12.66,37.9
0.034,0.269,4.824,5.937,76.0,12.66,37.91
0.15,0.311,4.826,5.935,76.0,12.66,37.89
0.077,0.207,4.831,5.932,76.0,12.66,37.87
-0.05,0.29,4.835,5.931,76.0,12.65,37.82
-0.037,0.331,4.835,5.93,76.0,12.65,37.8
-0.042,0.29,4.833,5.927,76.0,12.65,37.71
-0.035,0.29,4.83,5.925,76.0,12.65,37.67
-0.022,0.29,4.829,5.92,76.0,12.65,37.65
-0.082,0.269,4.828,5.915,76.0,12.65,37.6
0.221,0.684,4.826,5.914,76.0,12.65,37.59
-0.045,0.497,4.823,5.906,76.0,12.64,37.54
-0.031,0.331,4.823,5.905,76.0,12.64,37.53
0.018,0.228,4.823,5.903,77.0,12.64,37.51
0.135,0.249,4.82,5.9,77.0,12.64,37.49
0.066,0.269,4.819,5.899,77.0,12.64,37.45
-0.066,0.269,4.818,5.897,77.0,12.62,37.43
-0.053,0.269,4.815,5.895,77.0,12.62,37.41
-0.049,0.269,4.815,5.894,77.0,12.62,37.33
-0.063,0.228,4.813,5.892,77.0,12.62,37.26
-0.026,0.29,4.814,5.889,77.0,12.62,37.24
-0.084,0.29,4.813,5.889,77.0,12.62,37.21
-0.039,0.435,4.811,5.887,77.0,12.62,37.2
0.185,0.663,4.81,5.887,77.0,12.62,37.17
-0.049,0.249,4.809,5.887,77.0,12.62,37.14
-0.012,0.269,4.806,5.884,77.0,12.61,37.12
0.084,0.29,4.805,5.884,75.0,12.61,37.1
0.132,0.228,4.803,5.883,75.0,12.61,37.08
-0.05,0.311,4.801,5.882,75.0,12.61,37.06
-0.06,0.269,4.799,5.879,75.0,12.61,37.04
-0.049,0.249,4.798,5.879,75.0,12.61,36.98
-0.057,0.29,4.798,5.877,75.0,12.6,36.92
-0.061,0.269,4.795,5.875,75.0,12.61,36.88
-0.035,0.29,4.794,5.872,75.0,12.6,36.85
-0.089,0.269,4.791,5.87,75.0,12.6,36.82
0.215,0.601,4.791,5.868,75.0,12.6,36.79
-0.051,0.539,4.79,5.867,75.0,12.6,36.76
-0.037,0.269,4.788,5.863,75.0,12.6,36.73
0.014,0.269,4.785,5.86,73.0,12.6,36.71
0.138,0.249,4.784,5.857,73.0,12.6,36.7
0.067,0.249,4.78,5.853,73.0,12.6,36.7
-0.063,0.331,4.779,5.849,73.0,12.59,36.68
-0.053,0.269,4.776,5.845,73.0,12.59,36.67
-0.051,0.269,4.774,5.842,73.0,12.59,36.64
-0.065,0.228,4.772,5.838,73.0,12.59,36.6
-0.06,0.249,4.771,5.833,73.0,12.59,36.59
-0.05,0.269,4.768,5.83,73.0,12.59,36.6
-0.09,0.269,4.767,5.826,73.0,12.59,36.59
0.217,0.725,4.764,5.821,73.0,12.59,36.58
-0.055,0.29,4.763,5.818,73.0,12.59,36.58
-0.033,0.228,4.761,5.815,73.0,12.58,36.58
0.027,0.249,4.757,5.811,72.0,12.58,36.57
0.153,0.269,4.754,5.807,72.0,12.58,36.56
0.026,0.249,4.753,5.805,72.0,12.58,36.54
-0.065,0.249,4.749,5.799,72.0,12.58,36.51
-0.052,0.29,4.748,5.796,72.0,12.58,36.51
-0.053,0.29,4.746,5.791,72.0,12.58,36.46
-0.067,0.207,4.742,5.786,72.0,12.58,36.41
-0.063,0.29,4.741,5.783,72.0,12.58,36.4
-0.04,0.29,4.737,5.778,72.0,12.58,36.4
-0.083,0.29,4.736,5.775,72.0,12.58,36.4
0.227,0.746,4.733,5.771,72.0,12.56,36.4
-0.049,0.373,4.729,5.766,72.0,12.56,36.44
-0.025,0.311,4.727,5.763,72.0,12.56,36.47
0.031,0.249,4.724,5.76,71.0,12.56,36.52
0.158,0.269,4.722,5.756,71.0,12.56,36.59
0.052,0.29,4.719,5.752,71.0,12.56,36.65
-0.055,0.228,4.717,5.748,71.0,12.56,36.7
-0.043,0.269,4.716,5.745,71.0,12.56,36.78
-0.042,0.269,4.713,5.741,71.0,12.56,36.8
-0.031,0.29,4.712,5.736,71.0,12.55,36.83
-0.027,0.311,4.708,5.733,71.0,12.55,36.9
-0.06,0.269,4.706,5.729,71.0,12.55,36.99
-0.083,0.394,4.704,5.724,71.0,12.55,37.07
0.232,0.767,4.703,5.72,71.0,12.55,37.13
-0.035,0.311,4.702,5.711,71.0,12.55,37.29
-0.005,0.269,4.699,5.713,71.0,12.55,37.3
0.075,0.249,4.696,5.709,72.0,12.55,37.38
0.169,0.269,4.693,5.705,72.0,12.55,37.44
-0.011,0.249,4.691,5.701,72.0,12.55,37.5
-0.045,0.228,4.688,5.696,72.0,12.55,37.57
-0.033,0.29,4.687,5.691,72.0,12.55,37.62
-0.045,0.29,4.685,5.689,72.0,12.55,37.65
-0.024,0.29,4.682,5.684,72.0,12.54,37.69
-0.064,0.249,4.68,5.679,72.0,12.54,37.72
-0.078,0.394,4.679,5.676,72.0,12.54,37.73
0.238,0.767,4.676,5.671,72.0,12.54,37.74
-0.036,0.29,4.675,5.668,72.0,12.54,37.7
-0.002,0.249,4.674,5.664,72.0,12.54,37.67
0.082,0.269,4.672,5.659,78.0,12.54,37.63
0.155,0.29,4.67,5.656,78.0,12.54,37.6
-0.028,0.269,4.669,5.652,78.0,12.54,37.58
-0.052,0.249,4.667,5.649,78.0,12.54,37.54
-0.037,0.29,4.666,5.644,78.0,12.54,37.48
-0.048,0.269,4.666,5.641,78.0,12.54,37.41
-0.051,0.269,4.665,5.637,78.0,12.53,37.37
-0.029,0.249,4.662,5.632,78.0,12.53,37.34
-0.078,0.29,4.661,5.629,78.0,12.53,37.3
0.239,0.746,4.657,5.624,78.0,12.53,37.27
-0.047,0.497,4.656,5.619,78.0,12.53,37.26
-0.023,0.269,4.654,5.617,78.0,12.53,37.24
0.027,0.269,4.651,5.612,74.0,12.53,37.21
0.151,0.331,4.649,5.608,74.0,12.53,37.18
0.065,0.311,4.646,5.604,74.0,12.53,37.16
-0.055,0.29,4.645,5.602,74.0,12.53,37.13
-0.042,0.249,4.642,5.598,74.0,12.53,37.11
-0.037,0.269,4.641,5.594,74.0,12.53,37.05
-0.05,0.29,4.637,5.589,74.0,12.53,36.99
-0.054,0.269,4.635,5.586,74.0,12.53,36.98
-0.03,0.29,4.632,5.582,74.0,12.53,36.97
-0.061,0.249,4.63,5.578,74.0,12.53,36.96
-0.068,0.394,4.627,5.574,74.0,12.51,36.94
0.246,0.767,4.626,5.572,74.0,12.53,36.94
-0.033,0.29,4.624,5.567,74.0,12.51,36.94
-0.005,0.249,4.621,5.565,74.0,12.51,36.94
0.077,0.29,4.619,5.56,68.0,12.51,36.93
0.168,0.269,4.616,5.557,68.0,12.51,36.92
-0.018,0.207,4.614,5.554,68.0,12.51,36.9
-0.052,0.249,4.611,5.55,68.0,12.51,36.88
-0.039,0.29,4.61,5.546,68.0,12.51,36.86
-0.047,0.29,4.607,5.542,68.0,12.51,36.81
-0.058,0.249,4.605,5.539,68.0,12.51,36.79
-0.06,0.249,4.602,5.535,68.0,12.51,36.79
-0.056,0.331,4.599,5.53,68.0,12.51,36.79
-0.038,0.269,4.597,5.527,68.0,12.51,36.77
-0.078,0.414,4.594,5.524,68.0,12.5,36.77
0.233,0.787,4.592,5.52,68.0,12.5,36.77
-0.046,0.352,4.589,5.517,68.0,12.5,36.78
-0.025,0.29,4.587,5.514,68.0,12.5,36.78
0.031,0.249,4.584,5.51,64.0,12.5,36.78
0.04,0.29,4.582,5.507,64.0,12.5,36.77
0.002,0.29,4.579,5.504,64.0,12.5,36.77
-0.06,0.249,4.578,5.5,64.0,12.5,36.78
-0.049,0.269,4.574,5.497,64.0,12.5,36.79
-0.049,0.311,4.574,5.495,64.0,12.5,36.74
-0.062,0.269,4.568,5.486,64.0,12.5,36.7
-0.066,0.228,4.567,5.486,64.0,12.5,36.7
-0.066,0.311,4.565,5.482,64.0,12.5,36.69
-0.034,0.228,4.564,5.479,64.0,12.5,36.67
-0.078,0.29,4.562,5.475,64.0,12.5,36.66
0.103,0.642,4.559,5.472,64.0,12.5,36.66
0.068,0.58,4.558,5.468,64.0,12.5,36.68
-0.035,0.269,4.557,5.465,64.0,12.5,36.68
0.006,0.311,4.554,5.463,64.0,12.5,36.69
0.116,0.311,4.552,5.458,64.0,12.5,36.69
0.135,0.269,4.549,5.455,64.0,12.49,36.69
-0.048,0.29,4.547,5.453,64.0,12.49,36.7
-0.051,0.269,4.544,5.448,64.0,12.5,36.7
-0.041,0.29,4.542,5.445,64.0,12.49,36.67
-0.052,0.269,4.539,5.443,64.0,12.49,36.64
-0.059,0.228,4.537,5.438,64.0,12.49,36.63
-0.059,0.249,4.534,5.434,64.0,12.49,36.63
-0.043,0.249,4.532,5.43,64.0,12.49,36.64
-0.047,0.269,4.529,5.428,64.0,12.49,36.64
-0.077,0.331,4.528,5.424,64.0,12.49,36.64
0.244,0.684,4.527,5.422,64.0,12.49,36.65
-0.031,0.311,4.524,5.418,64.0,12.49,36.64
-0.008,0.269,4.522,5.415,64.0,12.49,36.65
0.061,0.249,4.519,5.412,64.0,12.49,36.66
0.184,0.228,4.518,5.409,64.0,12.49,36.66
0.019,0.249,4.515,5.405,64.0,12.49,36.68
-0.052,0.249,4.513,5.403,64.0,12.49,36.67
-0.038,0.269,4.512,5.4,64.0,12.49,36.67
-0.042,0.269,4.509,5.398,64.0,12.49,36.62
-0.053,0.311,4.507,5.394,64.0,12.49,36.6
-0.054,0.269,4.505,5.391,64.0,12.49,36.6
-0.049,0.249,4.502,5.387,64.0,12.49,36.62
-0.032,0.331,4.501,5.383,64.0,12.49,36.61
-0.068,0.29,4.497,5.381,64.0,12.49,36.61
0.241,0.767,4.495,5.378,64.0,12.48,36.63
-0.03,0.373,4.495,5.375,64.0,12.48,36.65
-0.007,0.29,4.492,5.372,64.0,12.48,36.64
0.05,0.269,4.49,5.368,65.0,12.48,36.65
0.181,0.29,4.487,5.367,65.0,12.48,36.66
0.075,0.269,4.485,5.365,65.0,12.48,36.65
-0.043,0.29,4.482,5.361,65.0,12.48,36.66
-0.03,0.331,4.481,5.358,65.0,12.48,36.67
-0.03,0.29,4.477,5.355,65.0,12.48,36.63
-0.044,0.311,4.477,5.352,65.0,12.48,36.61
-0.049,0.249,4.475,5.348,65.0,12.48,36.6
-0.032,0.269,4.473,5.346,65.0,12.48,36.6
-0.061,0.311,4.471,5.343,65.0,12.48,36.61
-0.017,0.435,4.47,5.341,65.0,12.48,36.61
0.208,0.642,4.468,5.337,65.0,12.48,36.64
-0.022,0.249,4.466,5.335,65.0,12.48,36.67
0.012,0.269,4.463,5.331,65.0,12.48,36.66
0.108,0.249,4.462,5.328,68.0,12.48,36.68
0.177,0.311,4.46,5.326,68.0,12.48,36.69
-0.022,0.29,4.457,5.322,68.0,12.48,36.69
-0.04,0.269,4.455,5.32,68.0,12.48,36.71
-0.03,0.269,4.452,5.317,68.0,12.48,36.71
-0.04,0.373,4.451,5.315,68.0,12.48,36.67
-0.044,0.311,4.448,5.311,68.0,12.48,36.68
-0.031,0.29,4.446,5.307,68.0,12.48,36.71
-0.068,0.331,4.443,5.305,68.0,12.48,36.73
0.228,0.684,4.442,5.301,68.0,12.48,36.77
-0.032,0.518,4.44,5.299,68.0,12.48,36.83
-0.018,0.269,4.437,5.298,68.0,12.48,36.91
0.03,0.29,4.435,5.294,72.0,12.48,36.99
0.153,0.311,4.433,5.291,72.0,12.48,37.08
0.101,0.249,4.432,5.289,72.0,12.48,37.15
-0.048,0.29,4.428,5.286,72.0,12.48,37.21
-0.035,0.269,4.426,5.284,72.0,12.48,37.3
-0.033,0.29,4.425,5.281,72.0,12.47,37.33
-0.029,0.311,4.422,5.279,72.0,12.47,37.38
-0.044,0.249,4.42,5.275,72.0,12.47,37.45
-0.067,0.29,4.418,5.273,72.0,12.47,37.52
0.24,0.849,4.415,5.27,72.0,12.47,37.58
-0.029,0.311,4.413,5.268,72.0,12.47,37.63
-0.001,0.29,4.411,5.266,72.0,12.47,37.67
0.064,0.29,4.409,5.264,80.0,12.47,37.71
0.18,0.29,4.406,5.26,80.0,12.47,37.74
0.021,0.249,4.404,5.258,80.0,12.47,37.76
-0.045,0.29,4.401,5.255,80.0,12.47,37.75
-0.034,0.29,4.4,5.253,80.0,12.47,37.71
-0.039,0.29,4.399,5.25,80.0,12.47,37.64
-0.029,0.249,4.396,5.246,80.0,12.47,37.59
-0.07,0.228,4.395,5.244,80.0,12.47,37.57
-0.016,0.456,4.393,5.24,80.0,12.47,37.52
0.193,0.684,4.393,5.238,80.0,12.47,37.5
-0.038,0.269,4.39,5.234,80.0,12.47,37.45
-0.003,0.29,4.388,5.231,80.0,12.47,37.42
0.092,0.29,4.386,5.229,80.0,12.47,37.37
0.133,0.331,4.383,5.226,80.0,12.47,37.36
-0.052,0.269,4.381,5.223,80.0,12.47,37.32
-0.06,0.269,4.379,5.22,80.0,12.47,37.3
-0.05,0.29,4.376,5.218,80.0,12.47,37.24
-0.061,0.249,4.375,5.214,80.0,12.47,37.17
-0.05,0.228,4.373,5.212,80.0,12.47,37.12
-0.078,0.331,4.37,5.208,80.0,12.47,37.08
-0.086,0.373,4.368,5.204,80.0,12.47,37.06
0.233,0.787,4.365,5.202,80.0,12.47,37.03
-0.048,0.269,4.364,5.199,80.0,12.45,37.01
-0.02,0.249,4.361,5.197,80.0,12.45,36.98
0.062,0.269,4.359,5.193,75.0,12.45,36.96
0.157,0.249,4.358,5.191,75.0,12.45,36.92
-0.026,0.29,4.355,5.188,75.0,12.45,36.88
-0.056,0.249,4.353,5.184,75.0,12.45,36.86
-0.043,0.269,4.351,5.183,75.0,12.45,36.82
-0.049,0.29,4.349,5.179,75.0,12.45,36.76
-0.058,0.29,4.346,5.177,75.0,12.45,36.71
-0.037,0.249,4.344,5.173,75.0,12.45,36.7
-0.076,0.29,4.343,5.171,75.0,12.45,36.66
0.051,0.518,4.34,5.167,75.0,12.45,36.66
0.127,0.559,4.339,5.164,75.0,12.45,36.64
-0.034,0.331,4.336,5.162,75.0,12.45,36.63
0.004,0.29,4.334,5.159,73.0,12.45,36.6
0.111,0.249,4.333,5.156,73.0,12.45,36.59
0.14,0.29,4.329,5.153,73.0,12.45,36.58
-0.04,0.269,4.328,5.149,73.0,12.45,36.57
-0.043,0.269,4.326,5.147,73.0,12.45,36.57
-0.035,0.331,4.322,5.146,73.0,12.45,36.53
-0.042,0.269,4.321,5.142,73.0,12.45,36.48
-0.049,0.249,4.317,5.139,73.0,12.45,36.46
-0.028,0.249,4.316,5.136,73.0,12.45,36.46
-0.065,0.228,4.313,5.133,73.0,12.45,36.44
0.123,0.663,4.311,5.131,73.0,12.45,36.46
0.081,0.601,4.308,5.128,73.0,12.45,36.44
-0.02,0.269,4.307,5.126,73.0,12.45,36.46
0.02,0.29,4.304,5.125,71.0,12.45,36.46
0.132,0.228,4.302,5.122,71.0,12.45,36.46
0.137,0.29,4.299,5.121,71.0,12.45,36.47
-0.038,0.249,4.297,5.119,71.0,12.45,36.46
-0.038,0.29,4.296,5.115,71.0,12.45,36.48
-0.034,0.249,4.292,5.112,71.0,12.45,36.46
-0.047,0.249,4.291,5.111,71.0,12.45,36.42
-0.056,0.207,4.288,5.107,71.0,12.45,36.4
-0.036,0.249,4.286,5.105,71.0,12.45,36.41
-0.075,0.331,4.284,5.101,71.0,12.45,36.41
0.033,0.58,4.282,5.099,71.0,12.44,36.43
0.142,0.601,4.279,5.095,71.0,12.45,36.45
-0.035,0.352,4.278,5.092,71.0,12.44,36.5
-0.001,0.249,4.276,5.09,70.0,12.45,36.54
0.1,0.269,4.273,5.087,70.0,12.45,36.59
0.135,0.311,4.271,5.085,70.0,12.45,36.62
-0.054,0.269,4.269,5.082,70.0,12.44,36.67
-0.063,0.249,4.268,5.079,70.0,12.44,36.72
-0.057,0.29,4.267,5.076,70.0,12.44,36.76
-0.07,0.331,4.264,5.072,70.0,12.45,36.76
-0.071,0.249,4.263,5.07,70.0,12.44,36.82
-0.07,0.29,4.261,5.067,70.0,12.44,36.9
0.213,0.932,4.258,5.064,70.0,12.44,36.98
0.213,0.829,4.256,5.061,70.0,12.44,37.07
-0.067,0.394,4.253,5.059,70.0,12.44,37.14
-0.038,0.249,4.252,5.055,80.0,12.44,37.23
0.016,0.29,4.249,5.052,80.0,12.44,37.31
0.137,0.311,4.243,5.047,80.0,12.44,37.45
0.037,0.331,4.245,5.047,80.0,12.44,37.47
-0.077,0.331,4.242,5.044,80.0,12.44,37.53
-0.062,0.269,4.24,5.041,80.0,12.44,37.6
-0.062,0.311,4.239,5.039,80.0,12.44,37.63
-0.055,0.29,4.236,5.037,80.0,12.44,37.68
-0.085,0.311,4.235,5.033,80.0,12.44,37.75
-0.097,0.373,4.232,5.03,80.0,12.44,37.83
0.223,0.787,4.23,5.028,80.0,12.44,37.91
-0.052,0.269,4.229,5.025,80.0,12.44,37.93
-0.024,0.29,4.226,5.023,80.0,12.44,37.96
0.056,0.29,4.224,5.02,73.0,12.44,37.97
0.135,0.249,4.221,5.017,73.0,12.44,37.94
-0.046,0.29,4.22,5.015,73.0,12.44,37.9
-0.075,0.207,4.217,5.013,73.0,12.44,37.85
-0.062,0.249,4.216,5.01,73.0,12.44,37.77
-0.072,0.249,4.214,5.008,73.0,12.44,37.68
-0.067,0.311,4.211,5.004,73.0,12.44,37.62
-0.086,0.269,4.21,5.0,73.0,12.44,37.58
-0.105,0.269,4.207,4.999,73.0,12.44,37.52
0.221,0.746,4.205,4.997,73.0,12.44,37.48
-0.066,0.352,4.204,4.993,73.0,12.44,37.42
-0.047,0.269,4.201,4.992,73.0,12.44,37.38
0.017,0.331,4.2,4.989,76.0,12.44,37.33
0.135,0.249,4.199,4.987,76.0,12.44,37.3
-0.019,0.249,4.196,4.983,76.0,12.44,37.26
-0.09,0.311,4.194,4.982,76.0,12.44,37.23
-0.073,0.331,4.191,4.978,76.0,12.44,37.19
-0.076,0.311,4.189,4.975,76.0,12.44,37.12
-0.089,0.249,4.187,4.973,76.0,12.44,37.06
-0.075,0.29,4.186,4.969,76.0,12.44,37.01
-0.097,0.29,4.184,4.967,76.0,12.44,36.97
-0.105,0.331,4.181,4.964,76.0,12.44,36.93
0.221,0.746,4.18,4.963,76.0,12.44,36.89
-0.065,0.29,4.177,4.959,76.0,12.44,36.84
-0.04,0.249,4.176,4.957,76.0,12.44,36.81
0.037,0.249,4.174,4.954,72.0,12.44,36.76
0.144,0.311,4.171,4.952,72.0,12.44,36.72
-0.035,0.269,4.17,4.951,72.0,12.44,36.67
-0.076,0.352,4.167,4.947,72.0,12.44,36.64
