ECG,EMG,foot GSR,hand GSR,HR,marker,RESP
-0.054,0.373,6.252,10.939,89.0,12.48,33.67
-0.001,0.249,6.252,10.877,89.0,12.48,33.29
-0.1,0.352,6.248,10.81,89.0,12.48,32.94
0.183,0.456,6.243,10.748,89.0,12.48,32.48
-0.012,0.414,6.236,10.687,89.0,12.48,32.08
0.066,0.29,6.227,10.631,89.0,12.48,31.67
0.117,0.311,6.213,10.576,89.0,12.48,31.31
0.197,0.249,6.198,10.525,75.0,12.48,30.96
-0.035,0.311,6.181,10.478,75.0,12.48,30.71
-0.138,0.331,6.164,10.433,75.0,12.48,30.54
-0.152,0.601,6.126,10.353,75.0,12.48,30.27
-0.125,0.477,6.125,10.349,75.0,12.48,30.25
-0.171,0.456,6.106,10.314,75.0,12.48,30.09
-0.239,0.601,6.089,10.281,75.0,12.48,29.98
0.103,0.87,6.08,10.249,75.0,12.48,29.96
-0.182,0.912,6.072,10.219,75.0,12.48,30.06
-0.085,0.849,6.064,10.189,75.0,12.48,30.27
0.069,0.725,6.059,10.161,89.0,12.48,30.54
0.0,0.787,6.056,10.132,89.0,12.48,30.89
-0.213,0.912,6.054,10.102,89.0,12.48,31.42
-0.189,0.849,6.048,10.073,89.0,12.48,32.31
-0.13,1.533,6.038,10.047,89.0,12.48,32.83
-0.185,1.057,6.027,10.023,89.0,12.48,33.07
-0.208,1.285,6.011,10.001,89.0,12.48,32.88
0.147,0.974,5.991,9.978,89.0,12.48,32.59
-0.112,0.849,5.972,9.956,89.0,12.48,32.48
-0.03,0.684,5.957,9.937,89.0,12.48,32.73
0.129,0.58,5.942,9.92,93.0,12.48,33.38
0.034,0.456,5.929,9.906,93.0,12.48,34.21
-0.152,0.559,5.913,9.892,93.0,12.48,34.82
-0.129,0.58,5.896,9.883,93.0,12.48,34.83
-0.066,0.539,5.885,9.882,93.0,12.48,34.31
-0.157,0.269,5.876,9.88,93.0,12.48,34.21
-0.139,0.331,5.864,9.87,93.0,12.48,34.17
0.101,0.601,5.864,9.864,93.0,12.48,34.3
-0.148,0.311,5.856,9.858,93.0,12.48,34.19
-0.047,1.036,5.854,9.845,93.0,12.48,33.99
0.066,1.222,5.857,9.835,95.0,12.48,33.49
-0.126,0.269,5.861,9.825,95.0,12.48,33.0
-0.269,0.331,5.867,9.823,95.0,12.48,32.5
-0.258,0.228,5.859,9.815,95.0,12.48,32.33
-0.194,0.746,5.854,9.798,95.0,12.48,31.93
-0.288,0.477,5.859,9.784,95.0,12.48,31.56
-0.116,0.394,5.86,9.773,95.0,12.48,31.38
-0.148,0.331,5.851,9.757,95.0,12.48,30.93
-0.241,0.477,5.845,9.745,95.0,12.48,30.39
-0.131,0.352,5.84,9.728,94.0,12.48,29.78
-0.015,0.559,5.832,9.716,94.0,12.48,29.35
-0.234,0.435,5.819,9.718,94.0,12.48,28.91
-0.324,0.186,5.809,9.736,94.0,12.48,28.5
-0.324,0.352,5.799,9.755,94.0,12.48,28.19
-0.284,0.456,5.791,9.778,94.0,12.48,27.76
-0.327,0.228,5.783,9.812,94.0,12.48,27.3
-0.368,0.331,5.778,9.857,94.0,12.48,26.89
-0.019,0.559,5.777,9.905,94.0,12.48,26.61
-0.287,0.186,5.775,9.955,94.0,12.48,26.37
-0.201,0.373,5.772,9.998,94.0,12.48,26.09
-0.06,0.228,5.772,10.038,89.0,12.48,25.85
-0.108,0.249,5.773,10.078,89.0,12.48,25.74
-0.299,0.352,5.781,10.115,89.0,12.48,25.69
-0.289,0.228,5.787,10.145,89.0,12.48,25.6
-0.289,0.311,5.794,10.168,89.0,12.48,25.35
-0.288,0.331,5.802,10.194,89.0,12.48,25.04
-0.24,0.249,5.812,10.216,89.0,12.48,24.82
-0.248,0.249,5.823,10.226,89.0,12.48,24.7
-0.294,0.186,5.834,10.231,89.0,12.48,24.65
0.05,0.497,5.846,10.232,89.0,12.48,24.56
-0.231,0.269,5.856,10.228,89.0,12.48,24.45
-0.14,0.249,5.866,10.223,89.0,12.48,24.35
-0.011,0.186,5.876,10.217,76.0,12.48,24.27
0.009,0.29,5.884,10.212,76.0,12.48,24.23
-0.213,0.207,5.891,10.21,76.0,12.48,24.12
-0.217,0.331,5.898,10.208,76.0,12.48,23.9
-0.217,0.228,5.903,10.213,76.0,12.48,23.65
-0.224,0.207,5.908,10.226,76.0,12.48,23.42
-0.217,0.207,5.91,10.24,76.0,12.48,23.3
-0.145,0.29,5.912,10.26,76.0,12.48,23.26
-0.096,0.29,5.912,10.283,76.0,12.48,23.26
0.138,0.352,5.912,10.31,76.0,12.48,23.22
-0.01,0.394,5.908,10.336,76.0,12.48,23.16
-0.13,0.228,5.905,10.356,76.0,12.48,23.11
-0.027,0.331,5.9,10.374,73.0,12.48,23.08
0.101,0.269,5.888,10.397,73.0,12.48,23.01
-0.045,0.186,5.887,10.4,73.0,12.48,23.0
-0.174,0.228,5.88,10.41,73.0,12.48,22.92
-0.165,0.352,5.873,10.435,73.0,12.48,22.76
-0.174,0.207,5.864,10.447,73.0,12.48,22.44
-0.177,0.311,5.854,10.437,73.0,12.48,22.15
-0.147,0.207,5.844,10.413,73.0,12.48,21.94
-0.13,0.269,5.835,10.39,73.0,12.48,21.81
-0.194,0.249,5.831,10.377,73.0,12.48,21.73
0.151,0.331,5.821,10.35,73.0,12.48,21.62
-0.181,0.269,5.811,10.314,73.0,12.48,21.47
-0.063,0.228,5.799,10.278,73.0,12.48,21.33
0.063,0.207,5.791,10.234,74.0,12.48,21.27
0.122,0.269,5.787,10.186,74.0,12.48,21.22
-0.121,0.186,5.802,10.146,74.0,12.48,21.15
-0.148,0.249,5.847,10.111,74.0,12.48,21.09
-0.146,0.186,5.907,10.072,74.0,12.48,20.95
-0.158,0.249,5.954,10.031,74.0,12.48,20.66
-0.156,0.311,5.992,9.989,74.0,12.48,20.48
-0.101,0.186,6.027,9.944,74.0,12.48,20.4
-0.128,0.269,6.057,9.901,74.0,12.48,20.36
-0.17,0.228,6.078,9.885,74.0,12.48,20.31
-0.036,0.166,6.098,9.856,74.0,12.48,20.25
-0.078,0.166,6.118,9.825,74.0,12.48,20.25
-0.005,0.249,6.14,9.795,74.0,12.48,20.26
0.134,0.207,6.16,9.764,74.0,12.48,20.27
0.109,0.269,6.178,9.739,74.0,12.48,20.28
-0.11,0.186,6.21,9.694,74.0,12.48,20.34
-0.113,0.29,6.211,9.691,74.0,12.48,20.34
-0.115,0.228,6.221,9.668,74.0,12.47,20.27
-0.123,0.228,6.222,9.642,74.0,12.48,20.14
-0.121,0.145,6.213,9.618,74.0,12.48,20.08
-0.127,0.145,6.186,9.596,74.0,12.48,20.09
-0.146,0.249,6.103,9.572,74.0,12.48,20.11
0.158,0.331,6.07,9.545,74.0,12.48,20.1
-0.065,0.249,6.049,9.526,74.0,12.48,20.2
0.022,0.166,6.011,9.481,74.0,12.48,20.16
0.166,0.207,6.008,9.478,74.0,12.48,20.16
0.111,0.186,5.992,9.459,74.0,12.48,20.19
-0.096,0.249,5.978,9.433,74.0,12.48,20.26
-0.098,0.166,5.966,9.412,74.0,12.48,20.33
-0.105,0.186,5.952,9.392,74.0,12.48,20.26
-0.106,0.166,5.937,9.375,74.0,12.48,20.12
-0.031,0.207,5.925,9.358,74.0,12.48,20.09
-0.113,0.207,5.914,9.338,74.0,12.48,20.04
0.023,0.29,5.903,9.317,74.0,12.48,20.01
0.041,0.249,5.891,9.297,74.0,12.48,20.0
-0.029,0.269,5.879,9.278,74.0,12.48,19.98
0.078,0.145,5.869,9.26,74.0,12.48,19.99
0.221,0.124,5.859,9.243,74.0,12.48,20.0
0.048,0.249,5.849,9.225,74.0,12.48,20.0
-0.08,0.166,5.84,9.205,74.0,12.48,20.05
-0.073,0.269,5.832,9.186,74.0,12.48,20.1
-0.079,0.145,5.822,9.169,74.0,12.48,20.01
-0.077,0.249,5.813,9.154,74.0,12.48,19.91
-0.003,0.186,5.806,9.137,74.0,12.48,19.93
-0.065,0.311,5.797,9.122,74.0,12.48,20.1
-0.019,0.228,5.789,9.106,74.0,12.48,20.36
0.187,0.331,5.782,9.09,80.0,12.48,20.61
0.023,0.124,5.774,9.072,80.0,12.48,20.92
0.127,0.331,5.768,9.06,80.0,12.48,21.3
0.278,0.145,5.761,9.045,80.0,12.48,21.7
0.16,0.352,5.753,9.03,80.0,12.48,22.13
0.0,0.124,5.748,9.015,80.0,12.48,22.54
0.008,0.269,5.741,9.0,80.0,12.48,22.9
0.002,0.249,5.736,8.986,80.0,12.48,23.1
0.041,0.29,5.731,8.974,80.0,12.48,23.3
0.03,0.207,5.724,8.961,80.0,12.48,23.55
-0.024,0.249,5.719,8.949,80.0,12.48,23.79
0.313,0.394,5.714,8.935,80.0,12.48,23.96
0.019,0.207,5.709,8.92,80.0,12.48,24.03
0.119,0.228,5.706,8.906,80.0,12.48,24.07
0.253,0.228,5.701,8.891,80.0,12.48,24.13
0.251,0.269,5.696,8.878,80.0,12.48,24.22
0.021,0.145,5.691,8.866,80.0,12.48,24.23
0.005,0.207,5.686,8.851,80.0,12.48,24.24
0.002,0.207,5.684,8.836,80.0,12.48,24.07
0.002,0.186,5.679,8.821,80.0,12.48,23.95
0.063,0.186,5.674,8.807,80.0,12.48,23.96
-0.019,0.207,5.669,8.794,80.0,12.48,24.03
0.223,0.373,5.664,8.779,80.0,12.48,24.14
0.075,0.29,5.66,8.764,80.0,12.48,24.23
0.072,0.186,5.654,8.751,80.0,12.48,24.26
0.182,0.186,5.652,8.739,80.0,12.47,24.26
0.314,0.228,5.644,8.724,80.0,12.47,24.29
0.103,0.166,5.639,8.709,80.0,12.48,24.31
0.002,0.186,5.637,8.697,80.0,12.48,24.31
0.004,0.145,5.63,8.684,80.0,12.48,24.23
-0.004,0.29,5.624,8.669,80.0,12.48,24.02
-0.001,0.207,5.619,8.657,80.0,12.47,23.94
0.055,0.228,5.614,8.642,80.0,12.47,23.91
-0.028,0.249,5.609,8.63,80.0,12.48,23.87
0.241,0.352,5.604,8.617,80.0,12.48,23.87
0.044,0.477,5.599,8.602,80.0,12.47,23.86
0.063,0.207,5.594,8.588,80.0,12.47,23.87
0.171,0.249,5.588,8.577,80.0,12.48,23.83
0.297,0.207,5.583,8.565,80.0,12.48,23.84
0.08,0.249,5.578,8.553,80.0,12.48,23.79
-0.02,0.249,5.574,8.538,80.0,12.48,23.72
-0.018,0.249,5.567,8.524,80.0,12.47,23.54
-0.031,0.311,5.562,8.513,80.0,12.47,23.24
-0.04,0.207,5.557,8.5,80.0,12.48,22.97
0.004,0.145,5.552,8.489,80.0,12.48,22.73
-0.034,0.249,5.547,8.473,80.0,12.47,22.52
-0.087,0.249,5.542,8.462,80.0,12.47,22.32
0.238,0.352,5.537,8.451,80.0,12.48,22.05
-0.028,0.207,5.532,8.439,80.0,12.47,21.81
0.049,0.207,5.527,8.431,80.0,12.48,21.61
0.192,0.228,5.522,8.424,80.0,12.47,21.4
0.162,0.249,5.517,8.414,80.0,12.48,21.22
-0.074,0.207,5.515,8.404,80.0,12.47,21.04
-0.08,0.249,5.507,8.392,80.0,12.47,20.89
-0.081,0.269,5.505,8.38,80.0,12.47,20.67
-0.09,0.249,5.5,8.371,80.0,12.47,20.4
-0.091,0.166,5.496,8.362,80.0,12.47,20.26
-0.026,0.29,5.492,8.35,80.0,12.47,20.14
-0.084,0.207,5.487,8.336,80.0,12.47,20.08
-0.09,0.249,5.482,8.325,80.0,12.47,20.0
0.196,0.477,5.478,8.315,80.0,12.47,19.95
-0.024,0.269,5.475,8.303,80.0,12.47,19.91
0.07,0.186,5.47,8.289,80.0,12.47,19.91
0.224,0.207,5.465,8.278,80.0,12.47,19.9
0.13,0.207,5.462,8.267,80.0,12.47,19.91
-0.076,0.104,5.458,8.254,72.0,12.48,19.9
-0.071,0.29,5.453,8.243,72.0,12.47,19.93
-0.072,0.228,5.45,8.233,72.0,12.47,19.82
-0.078,0.269,5.445,8.223,72.0,12.47,19.73
-0.021,0.311,5.44,8.211,72.0,12.47,19.71
-0.058,0.228,5.437,8.2,72.0,12.48,19.72
-0.103,0.249,5.433,8.191,72.0,12.47,19.74
0.211,0.456,5.428,8.182,72.0,12.47,19.79
-0.023,0.228,5.424,8.173,72.0,12.47,19.86
0.062,0.269,5.42,8.161,72.0,12.47,19.9
0.217,0.311,5.415,8.153,72.0,12.48,19.91
0.169,0.331,5.413,8.145,72.0,12.47,19.94
-0.064,0.269,5.408,8.135,76.0,12.48,19.96
-0.066,0.29,5.405,8.12,76.0,12.47,19.97
-0.066,0.186,5.402,8.108,76.0,12.48,19.82
-0.022,0.207,5.398,8.099,76.0,12.48,19.71
-0.045,0.207,5.395,8.089,76.0,12.48,19.74
-0.104,0.331,5.391,8.079,76.0,12.48,19.77
0.203,0.435,5.386,8.071,76.0,12.48,19.79
-0.029,0.29,5.383,8.063,76.0,12.48,19.84
0.054,0.311,5.38,8.058,76.0,12.48,19.8
0.211,0.249,5.376,8.053,76.0,12.47,19.77
0.164,0.228,5.372,8.045,76.0,12.47,19.78
-0.069,0.29,5.368,8.038,84.0,12.47,19.79
-0.069,0.249,5.365,8.031,84.0,12.47,19.82
-0.066,0.269,5.361,8.026,84.0,12.47,19.8
0.0,0.207,5.357,8.021,84.0,12.47,19.71
-0.091,0.207,5.353,8.016,84.0,12.47,19.67
0.102,0.249,5.35,8.008,84.0,12.47,19.7
0.01,0.497,5.346,8.001,84.0,12.48,19.73
-0.004,0.249,5.342,7.996,84.0,12.47,19.75
0.11,0.352,5.338,7.991,84.0,12.47,19.8
0.256,0.166,5.336,7.986,84.0,12.47,19.87
0.033,0.249,5.332,7.978,84.0,12.47,19.94
-0.071,0.186,5.328,7.972,87.0,12.47,20.02
-0.061,0.249,5.326,7.963,87.0,12.47,20.12
-0.07,0.207,5.322,7.957,87.0,12.47,20.09
-0.04,0.249,5.318,7.95,87.0,12.47,20.1
-0.019,0.269,5.316,7.942,87.0,12.47,20.2
-0.089,0.166,5.312,7.934,87.0,12.47,20.36
0.26,0.331,5.308,7.925,87.0,12.47,20.5
-0.076,0.249,5.306,7.915,87.0,12.47,20.64
0.049,0.228,5.301,7.907,87.0,12.47,20.8
0.186,0.186,5.299,7.897,87.0,12.47,20.98
0.248,0.249,5.295,7.887,87.0,12.47,21.2
-0.006,0.249,5.291,7.877,87.0,12.47,21.4
-0.035,0.269,5.289,7.867,80.0,12.47,21.64
-0.03,0.29,5.285,7.86,80.0,12.47,21.78
-0.038,0.269,5.281,7.848,80.0,12.47,21.86
-0.04,0.249,5.279,7.838,80.0,12.47,22.08
0.029,0.186,5.276,7.828,80.0,12.47,22.39
-0.023,0.166,5.273,7.819,80.0,12.47,22.74
-0.035,0.269,5.27,7.81,80.0,12.47,23.07
0.285,0.414,5.266,7.8,80.0,12.47,23.37
0.049,0.228,5.264,7.792,80.0,12.47,23.66
0.136,0.186,5.26,7.783,80.0,12.47,23.92
0.27,0.166,5.256,7.773,80.0,12.47,24.14
0.205,0.352,5.254,7.766,80.0,12.47,24.26
0.012,0.249,5.251,7.756,80.0,12.47,24.31
0.01,0.207,5.248,7.747,73.0,12.47,24.29
0.0,0.29,5.244,7.738,73.0,12.47,24.04
-0.011,0.207,5.241,7.728,73.0,12.47,23.82
-0.017,0.29,5.239,7.72,73.0,12.47,23.68
0.021,0.29,5.235,7.711,73.0,12.47,23.52
-0.008,0.311,5.233,7.705,73.0,12.47,23.35
-0.062,0.249,5.229,7.697,73.0,12.47,23.1
0.254,0.331,5.225,7.69,73.0,12.47,22.81
-0.029,0.29,5.223,7.681,73.0,12.47,22.52
0.051,0.166,5.219,7.673,73.0,12.47,22.23
0.18,0.207,5.216,7.665,73.0,12.47,21.95
0.186,0.269,5.214,7.658,73.0,12.47,21.7
-0.068,0.186,5.212,7.653,70.0,12.47,21.45
-0.087,0.249,5.208,7.648,70.0,12.47,21.22
-0.091,0.186,5.207,7.644,70.0,12.47,20.93
-0.103,0.249,5.203,7.643,70.0,12.47,20.64
-0.103,0.228,5.201,7.649,70.0,12.47,20.43
-0.093,0.249,5.197,7.66,70.0,12.47,20.3
-0.028,0.124,5.194,7.678,70.0,12.47,20.19
-0.114,0.228,5.192,7.705,70.0,12.47,20.11
0.104,0.331,5.189,7.741,70.0,12.47,20.04
-0.015,0.352,5.187,7.786,70.0,12.47,19.99
-0.026,0.311,5.184,7.834,70.0,12.47,19.96
0.081,0.269,5.182,7.889,68.0,12.48,19.95
0.226,0.228,5.181,7.943,68.0,12.48,19.95
0.029,0.228,5.178,8.002,68.0,12.47,19.96
-0.104,0.186,5.178,8.062,68.0,12.45,19.95
-0.099,0.207,5.178,8.117,68.0,12.47,19.97
-0.107,0.207,5.178,8.172,68.0,12.47,19.86
-0.111,0.207,5.178,8.224,68.0,12.45,19.76
-0.113,0.207,5.181,8.279,68.0,12.47,19.74
-0.066,0.228,5.181,8.329,68.0,12.47,19.76
-0.085,0.145,5.183,8.373,68.0,12.47,19.78
-0.136,0.186,5.186,8.411,68.0,12.47,19.79
0.178,0.456,5.188,8.444,68.0,12.47,19.82
-0.077,0.311,5.191,8.468,68.0,12.47,19.86
0.008,0.352,5.193,8.49,68.0,12.47,19.9
0.15,0.207,5.196,8.505,68.0,12.47,19.93
0.177,0.269,5.198,8.518,68.0,12.45,19.98
-0.088,0.29,5.199,8.522,68.0,12.45,20.01
-0.111,0.207,5.203,8.516,68.0,12.45,20.06
-0.111,0.249,5.203,8.509,68.0,12.45,20.04
-0.123,0.269,5.206,8.5,68.0,12.45,19.92
-0.126,0.249,5.206,8.489,68.0,12.47,19.86
-0.125,0.228,5.207,8.472,68.0,12.45,19.87
-0.055,0.29,5.208,8.452,68.0,12.47,19.89
-0.13,0.207,5.208,8.432,68.0,12.47,19.89
-0.043,0.352,5.208,8.41,68.0,12.48,19.91
0.079,0.435,5.207,8.387,68.0,12.48,19.94
-0.054,0.166,5.206,8.365,68.0,12.48,19.98
0.049,0.207,5.206,8.344,68.0,12.48,20.02
0.205,0.207,5.203,8.321,68.0,12.48,20.06
0.062,0.29,5.201,8.299,68.0,12.48,20.1
-0.108,0.186,5.199,8.276,68.0,12.48,20.15
-0.097,0.207,5.197,8.253,68.0,12.48,20.21
-0.097,0.228,5.194,8.232,68.0,12.48,20.17
-0.095,0.207,5.191,8.21,68.0,12.47,20.23
-0.086,0.207,5.188,8.189,68.0,12.47,20.48
-0.01,0.228,5.186,8.169,68.0,12.47,20.8
-0.07,0.311,5.182,8.149,68.0,12.47,21.15
0.008,0.228,5.178,8.129,68.0,12.47,21.5
0.175,0.435,5.174,8.112,68.0,12.47,21.86
0.029,0.166,5.171,8.094,68.0,12.48,22.23
0.132,0.352,5.167,8.078,68.0,12.48,22.62
0.288,0.269,5.164,8.062,68.0,12.47,23.03
0.148,0.249,5.159,8.045,68.0,12.47,23.44
-0.019,0.166,5.157,8.031,71.0,12.47,23.87
-0.017,0.166,5.152,8.015,71.0,12.47,24.24
-0.025,0.228,5.149,7.998,71.0,12.47,24.46
-0.033,0.331,5.144,7.984,71.0,12.47,24.67
0.022,0.249,5.142,7.971,71.0,12.48,24.89
-0.021,0.249,5.138,7.956,71.0,12.48,25.01
-0.06,0.228,5.134,7.942,71.0,12.47,25.04
0.278,0.435,5.131,7.929,71.0,12.47,24.97
0.005,0.249,5.128,7.916,71.0,12.48,24.84
0.081,0.207,5.125,7.904,71.0,12.48,24.72
0.22,0.352,5.121,7.891,71.0,12.47,24.56
0.165,0.269,5.119,7.879,71.0,12.47,24.36
-0.067,0.207,5.115,7.867,75.0,12.48,24.06
-0.078,0.331,5.112,7.858,75.0,12.47,23.69
-0.092,0.207,5.11,7.848,75.0,12.47,23.19
-0.109,0.311,5.105,7.838,75.0,12.47,22.67
-0.057,0.29,5.102,7.828,75.0,12.47,22.3
-0.049,0.249,5.1,7.819,75.0,12.47,22.0
-0.118,0.228,5.096,7.813,75.0,12.47,21.76
-0.115,0.186,5.094,7.807,75.0,12.47,21.51
0.157,0.477,5.09,7.804,75.0,12.47,21.26
-0.066,0.186,5.085,7.803,75.0,12.47,20.89
0.024,0.228,5.084,7.803,75.0,12.47,20.87
0.18,0.249,5.081,7.806,72.0,12.47,20.72
0.084,0.269,5.079,7.81,72.0,12.47,20.6
-0.121,0.311,5.076,7.818,72.0,12.47,20.49
-0.116,0.207,5.074,7.824,72.0,12.47,20.41
-0.117,0.228,5.071,7.829,72.0,12.47,20.24
-0.126,0.207,5.069,7.837,72.0,12.47,20.08
-0.128,0.352,5.066,7.842,72.0,12.47,19.99
-0.078,0.228,5.064,7.849,72.0,12.47,19.95
-0.099,0.207,5.062,7.854,72.0,12.47,19.93
-0.145,0.207,5.061,7.858,72.0,12.47,19.9
0.177,0.477,5.059,7.861,72.0,12.47,19.9
-0.071,0.228,5.056,7.863,72.0,12.47,19.91
0.015,0.228,5.055,7.863,72.0,12.47,19.93
0.164,0.269,5.054,7.861,70.0,12.47,19.94
0.174,0.186,5.052,7.857,70.0,12.47,19.96
-0.083,0.269,5.05,7.849,70.0,12.47,19.96
-0.094,0.186,5.049,7.843,70.0,12.47,19.99
-0.088,0.228,5.046,7.833,70.0,12.47,19.94
-0.096,0.228,5.045,7.822,70.0,12.47,19.82
-0.095,0.186,5.044,7.809,70.0,12.47,19.79
-0.086,0.249,5.041,7.795,70.0,12.47,19.8
-0.024,0.331,5.04,7.784,70.0,12.47,19.82
0.18,0.394,5.038,7.772,70.0,12.47,19.84
0.254,0.394,5.037,7.76,70.0,12.47,19.85
-0.063,0.269,5.034,7.747,70.0,12.47,19.89
-0.011,0.228,5.033,7.735,74.0,12.47,19.9
0.099,0.145,5.03,7.725,74.0,12.47,19.93
0.244,0.249,5.027,7.702,74.0,12.47,19.98
0.035,0.228,5.027,7.701,74.0,12.47,19.99
-0.084,0.186,5.023,7.69,74.0,12.47,20.01
-0.076,0.249,5.022,7.679,74.0,12.45,20.03
-0.08,0.166,5.018,7.669,74.0,12.45,19.93
-0.081,0.228,5.017,7.659,74.0,12.47,19.83
-0.079,0.311,5.013,7.65,74.0,12.45,19.83
-0.005,0.207,5.012,7.641,74.0,12.47,19.89
-0.056,0.228,5.009,7.631,74.0,12.47,20.09
-0.053,0.373,5.005,7.621,74.0,12.47,20.38
0.235,0.414,5.003,7.614,74.0,12.47,20.74
0.02,0.311,5.0,7.605,74.0,12.48,21.11
0.118,0.249,4.998,7.598,74.0,12.47,21.49
0.282,0.166,4.995,7.591,74.0,12.47,21.87
0.207,0.207,4.992,7.583,74.0,12.48,22.27
-0.001,0.269,4.99,7.576,74.0,12.48,22.66
0.0,0.207,4.988,7.567,64.0,12.47,23.05
0.0,0.207,4.984,7.559,64.0,12.47,23.35
-0.006,0.186,4.982,7.557,64.0,12.47,23.67
0.049,0.207,4.979,7.553,64.0,12.47,24.06
-0.001,0.249,4.977,7.546,64.0,12.47,24.44
-0.037,0.228,4.974,7.537,64.0,12.48,24.79
0.302,0.435,4.972,7.528,64.0,12.47,25.0
0.036,0.249,4.969,7.519,64.0,12.47,25.12
0.114,0.249,4.965,7.512,64.0,12.48,25.12
0.257,0.207,4.964,7.502,64.0,12.48,25.04
0.197,0.29,4.962,7.492,64.0,12.48,24.87
-0.03,0.207,4.959,7.482,64.0,12.48,24.64
-0.044,0.249,4.957,7.471,76.0,12.48,24.4
-0.054,0.29,4.954,7.46,76.0,12.48,24.02
-0.069,0.228,4.952,7.452,76.0,12.48,23.63
-0.064,0.331,4.95,7.445,76.0,12.48,23.33
-0.025,0.228,4.947,7.436,76.0,12.48,23.04
-0.113,0.269,4.946,7.429,76.0,12.47,22.78
0.266,0.331,4.942,7.426,76.0,12.48,22.51
-0.158,0.435,4.94,7.424,76.0,12.48,22.2
-0.026,0.228,4.937,7.421,76.0,12.48,21.95
0.087,0.269,4.935,7.418,75.0,12.48,21.74
0.204,0.249,4.932,7.414,75.0,12.48,21.57
-0.046,0.29,4.93,7.409,75.0,12.48,21.38
-0.124,0.166,4.928,7.408,75.0,12.48,21.22
-0.117,0.228,4.926,7.408,75.0,12.48,21.01
-0.128,0.228,4.923,7.412,75.0,12.48,20.74
-0.133,0.29,4.922,7.413,75.0,12.48,20.52
-0.093,0.331,4.918,7.412,75.0,12.48,20.36
-0.088,0.228,4.917,7.411,75.0,12.48,20.24
-0.147,0.228,4.915,7.408,75.0,12.48,20.13
0.195,0.435,4.912,7.408,75.0,12.48,20.03
-0.11,0.186,4.91,7.407,75.0,12.48,19.95
-0.01,0.249,4.908,7.406,75.0,12.55,19.91
0.13,0.228,4.907,7.403,72.0,12.95,19.89
0.188,0.29,4.905,7.402,72.0,13.42,19.87
-0.088,0.145,4.902,7.401,72.0,12.99,19.85
-0.119,0.228,4.9,7.397,72.0,12.58,19.86
-0.115,0.186,4.898,7.392,72.0,12.54,19.83
-0.124,0.249,4.896,7.387,72.0,12.53,19.71
-0.127,0.249,4.895,7.382,72.0,12.5,19.66
-0.088,0.228,4.892,7.377,72.0,12.55,19.64
-0.09,0.124,4.89,7.372,72.0,12.62,19.66
-0.148,0.249,4.888,7.367,72.0,12.69,19.66
0.185,0.373,4.886,7.362,72.0,12.7,19.66
-0.109,0.311,4.885,7.357,72.0,12.71,19.68
-0.007,0.29,4.882,7.354,72.0,12.73,19.71
0.131,0.228,4.88,7.352,71.0,12.76,19.73
0.193,0.207,4.878,7.347,71.0,12.73,19.76
-0.078,0.269,4.876,7.342,71.0,12.87,19.78
-0.105,0.186,4.873,7.337,71.0,12.75,19.81
-0.094,0.186,4.872,7.33,71.0,12.66,19.85
-0.094,0.207,4.87,7.325,71.0,12.58,19.93
-0.083,0.29,4.867,7.317,71.0,12.53,20.14
-0.006,0.186,4.865,7.312,71.0,12.53,20.46
-0.071,0.269,4.863,7.307,71.0,12.51,20.81
-0.011,0.269,4.861,7.3,71.0,12.54,21.15
0.204,0.331,4.859,7.293,71.0,12.58,21.48
0.031,0.145,4.856,7.286,71.0,12.55,21.81
0.138,0.207,4.855,7.277,71.0,12.47,22.18
0.3,0.228,4.853,7.27,71.0,12.43,22.54
0.184,0.249,4.851,7.262,71.0,12.45,22.9
0.007,0.228,4.848,7.255,71.0,12.45,23.25
0.013,0.269,4.845,7.248,73.0,12.45,23.58
0.012,0.29,4.844,7.241,73.0,12.44,23.83
0.008,0.207,4.841,7.237,73.0,12.44,24.11
0.062,0.249,4.84,7.234,73.0,12.45,24.42
0.022,0.145,4.838,7.226,73.0,12.44,24.71
-0.017,0.311,4.834,7.219,73.0,12.49,24.94
0.336,0.435,4.833,7.209,73.0,12.43,25.07
0.052,0.166,4.83,7.201,73.0,12.71,25.12
0.134,0.311,4.828,7.194,73.0,12.49,25.09
0.274,0.228,4.825,7.186,73.0,12.44,24.98
0.256,0.207,4.824,7.178,73.0,12.49,24.82
0.005,0.166,4.821,7.17,73.0,12.54,24.58
-0.011,0.249,4.82,7.161,75.0,12.51,24.32
-0.022,0.207,4.818,7.154,75.0,12.5,23.92
-0.042,0.311,4.815,7.147,75.0,12.47,23.48
-0.057,0.207,4.813,7.138,75.0,12.54,23.12
-0.016,0.228,4.81,7.131,75.0,12.67,22.78
-0.055,0.311,4.808,7.123,75.0,12.8,22.49
-0.106,0.228,4.805,7.116,75.0,12.82,22.24
0.232,0.477,4.804,7.109,75.0,12.8,21.97
-0.053,0.207,4.801,7.103,75.0,13.12,21.73
0.023,0.249,4.799,7.096,75.0,13.2,21.52
0.163,0.124,4.796,7.087,75.0,12.9,21.34
0.179,0.269,4.795,7.079,75.0,13.15,21.19
-0.083,0.207,4.791,7.072,70.0,12.93,21.04
-0.099,0.249,4.79,7.064,70.0,12.82,20.92
-0.095,0.207,4.788,7.057,70.0,12.67,20.73
-0.108,0.186,4.785,7.05,70.0,12.73,20.51
-0.107,0.228,4.785,7.044,70.0,12.66,20.36
-0.105,0.166,4.781,7.038,70.0,12.64,20.25
-0.071,0.249,4.78,7.034,70.0,12.71,20.19
-0.057,0.186,4.778,7.029,70.0,12.66,20.11
-0.117,0.228,4.775,7.025,70.0,12.71,20.06
0.246,0.456,4.773,7.021,70.0,12.92,20.01
-0.107,0.228,4.772,7.016,70.0,13.0,19.98
0.007,0.124,4.769,7.01,70.0,13.14,19.95
0.138,0.269,4.768,7.004,70.0,13.27,19.94
0.224,0.124,4.766,6.999,70.0,12.92,19.93
-0.046,0.414,4.763,6.992,70.0,12.62,19.91
-0.097,1.264,4.761,6.985,65.0,12.65,19.91
-0.091,2.196,4.759,6.978,65.0,12.61,19.88
-0.101,1.616,4.757,6.968,65.0,12.7,19.76
-0.099,1.471,4.754,6.958,65.0,12.72,19.69
-0.101,0.891,4.753,6.949,65.0,12.4,19.63
-0.093,1.16,4.752,6.946,65.0,12.48,19.57
-0.027,0.663,4.749,6.946,65.0,12.33,19.86
-0.096,0.974,4.747,6.938,65.0,12.26,20.19
-0.02,1.098,4.744,6.93,65.0,12.58,20.61
0.121,1.72,4.743,6.92,65.0,12.99,20.8
-0.014,1.119,4.742,6.899,65.0,13.41,20.93
0.084,1.72,4.741,6.915,65.0,13.78,21.08
0.244,1.948,4.738,6.907,65.0,14.44,21.29
0.149,0.87,4.737,6.903,65.0,14.83,21.77
-0.035,0.767,4.734,6.894,64.0,14.59,22.35
-0.023,1.036,4.733,6.883,64.0,15.41,22.79
-0.014,0.994,4.732,6.866,64.0,17.18,23.0
-0.013,1.948,4.731,6.855,64.0,17.93,23.13
0.006,0.994,4.728,6.876,64.0,14.82,23.41
0.056,1.409,4.726,6.891,64.0,13.28,23.74
-0.023,2.424,4.723,6.899,64.0,13.03,24.01
0.327,2.901,4.721,6.902,64.0,12.58,24.29
-0.058,1.637,4.718,6.898,64.0,12.47,24.58
0.073,3.087,4.717,6.893,64.0,12.34,24.91
0.181,1.761,4.716,6.89,64.0,12.61,25.25
0.304,4.289,4.713,6.882,64.0,12.18,25.65
0.054,3.688,4.709,6.876,64.0,12.31,25.83
-0.033,3.916,4.708,6.866,73.0,12.28,25.87
-0.042,4.807,4.706,6.851,73.0,12.06,25.71
-0.065,5.387,4.703,6.836,73.0,12.14,25.52
-0.07,4.807,4.701,6.83,73.0,12.48,25.31
-0.05,7.769,4.697,6.827,73.0,12.48,24.99
-0.139,4.765,4.692,6.822,73.0,12.5,24.56
0.21,4.869,4.689,6.812,73.0,12.4,24.06
-0.171,8.681,4.687,6.801,73.0,12.38,23.56
-0.038,10.256,4.684,6.8,73.0,12.39,23.08
0.077,4.454,4.68,6.805,77.0,12.48,22.54
0.164,8.246,4.675,6.805,77.0,12.54,22.14
-0.066,11.188,4.671,6.802,77.0,12.59,21.83
-0.135,3.294,4.67,6.798,77.0,12.58,21.49
-0.121,7.562,4.669,6.792,77.0,12.8,21.04
-0.133,9.613,4.666,6.788,77.0,13.09,20.6
-0.118,5.843,4.666,6.785,77.0,13.16,20.39
-0.066,3.957,4.662,6.781,77.0,13.56,20.27
-0.151,2.693,4.661,6.774,77.0,12.99,20.1
0.198,6.775,4.66,6.784,77.0,12.88,19.9
-0.199,2.714,4.659,6.782,77.0,13.34,19.73
-0.039,2.838,4.656,6.778,77.0,13.45,19.67
0.1,2.693,4.656,6.775,77.0,13.36,19.67
0.207,4.641,4.654,6.773,77.0,13.37,19.66
-0.033,8.018,4.651,6.769,77.0,13.26,19.61
-0.089,1.865,4.649,6.767,77.0,13.82,19.64
-0.067,1.823,4.645,6.763,77.0,14.14,19.63
-0.057,2.093,4.644,6.76,77.0,13.81,19.59
-0.016,2.175,4.64,6.758,77.0,13.19,19.54
-0.006,2.362,4.636,6.757,77.0,12.62,19.48
-0.076,1.678,4.634,6.757,77.0,13.01,19.44
0.24,1.927,4.632,6.757,77.0,13.2,19.43
-0.032,1.865,4.631,6.759,77.0,13.32,19.57
0.083,1.181,4.629,6.76,77.0,13.72,19.7
0.24,1.927,4.627,6.763,77.0,13.88,19.8
0.313,2.113,4.626,6.768,77.0,14.02,20.13
0.059,0.974,4.624,6.773,77.0,12.93,20.73
0.028,0.704,4.624,6.778,77.0,12.77,21.32
0.044,0.953,4.625,6.783,77.0,12.84,21.78
0.053,0.477,4.626,6.788,77.0,12.71,22.32
0.132,0.456,4.627,6.793,77.0,12.78,22.87
0.054,0.58,4.63,6.798,77.0,13.01,23.49
0.159,0.622,4.632,6.802,77.0,12.93,23.99
0.262,0.559,4.636,6.805,77.0,12.75,24.3
0.138,0.394,4.64,6.807,77.0,12.76,24.62
0.247,0.435,4.645,6.81,77.0,12.84,24.87
0.342,0.704,4.65,6.811,77.0,13.05,25.14
0.172,0.663,4.654,6.814,77.0,12.99,25.37
0.023,0.456,4.66,6.814,77.0,13.11,25.49
0.005,0.435,4.665,6.816,77.0,13.3,25.33
-0.025,0.58,4.669,6.819,77.0,13.34,24.92
-0.032,1.036,4.675,6.822,77.0,13.17,24.5
-0.003,0.559,4.677,6.831,77.0,12.99,24.25
-0.129,0.767,4.682,6.843,77.0,12.89,23.93
0.099,0.912,4.686,6.861,77.0,12.92,23.58
-0.138,0.746,4.689,6.886,77.0,13.04,23.23
-0.105,0.601,4.693,6.921,77.0,13.34,22.77
-0.035,0.29,4.697,6.966,78.0,13.53,22.38
0.091,0.559,4.704,7.023,78.0,13.53,22.14
-0.087,0.394,4.715,7.088,78.0,13.52,21.71
-0.177,0.311,4.734,7.162,78.0,13.55,21.16
-0.153,0.849,4.758,7.242,78.0,13.61,20.69
-0.147,0.477,4.775,7.332,78.0,13.64,20.32
-0.096,0.497,4.793,7.413,78.0,13.66,19.93
-0.077,0.228,4.811,7.494,78.0,13.6,19.56
-0.14,0.808,4.836,7.575,78.0,13.58,19.34
0.172,0.518,4.867,7.657,78.0,13.61,19.32
-0.15,0.373,4.898,7.732,78.0,13.67,19.27
-0.054,0.518,4.936,7.807,78.0,13.7,19.24
0.051,0.539,4.979,7.884,80.0,13.75,19.18
0.117,0.704,5.036,7.976,80.0,13.83,19.26
-0.12,0.746,5.105,8.083,80.0,13.89,19.41
-0.138,0.601,5.178,8.201,80.0,13.92,19.47
-0.145,0.435,5.254,8.328,80.0,13.92,19.39
-0.163,0.601,5.32,8.462,80.0,13.97,19.36
-0.092,0.331,5.376,8.607,80.0,14.0,19.42
-0.148,0.249,5.423,8.744,80.0,13.98,19.52
-0.153,0.373,5.483,8.857,80.0,13.97,19.57
0.156,0.539,5.597,8.983,80.0,13.97,19.72
-0.024,0.249,5.75,9.116,80.0,13.92,20.12
0.085,0.186,5.9,9.248,80.0,13.8,20.44
0.246,0.207,6.054,9.366,80.0,13.75,20.89
0.193,0.394,6.19,9.491,80.0,13.8,21.44
0.004,0.477,6.237,9.635,80.0,13.74,21.96
0.011,0.331,6.24,9.756,80.0,13.53,22.35
0.022,0.269,6.312,9.889,80.0,12.93,22.62
0.077,0.249,6.361,10.002,80.0,12.66,22.95
-0.01,0.207,6.41,10.156,80.0,12.6,23.21
0.309,0.539,6.468,10.339,80.0,12.8,23.51
0.01,0.394,6.518,10.528,80.0,12.89,23.84
0.081,0.249,6.561,10.694,80.0,12.87,24.1
0.19,0.311,6.605,10.801,80.0,12.86,24.3
0.299,0.311,6.662,10.888,80.0,13.01,24.49
0.07,0.207,6.692,10.97,80.0,13.09,24.63
-0.008,0.228,6.714,11.031,87.0,13.04,24.71
-0.014,0.331,6.734,11.079,87.0,12.95,24.66
0.004,0.269,6.753,11.145,87.0,12.83,24.53
0.007,0.311,6.766,11.164,87.0,12.86,24.48
-0.07,0.207,6.782,11.169,87.0,12.86,24.39
0.297,0.311,6.806,11.173,87.0,12.84,24.3
-0.076,0.186,6.818,11.172,87.0,12.81,24.23
0.028,0.207,6.832,11.148,87.0,12.82,24.21
0.146,0.269,6.845,11.127,87.0,13.61,24.14
0.17,0.228,6.847,11.1,87.0,13.2,24.01
-0.085,0.29,6.849,11.087,86.0,11.57,23.81
-0.13,0.228,6.845,11.082,86.0,10.73,23.59
-0.151,0.331,6.838,11.069,86.0,11.42,23.25
-0.166,0.228,6.826,11.064,86.0,15.3,22.83
-0.127,0.249,6.816,11.047,86.0,17.32,22.46
-0.228,0.249,6.804,11.036,86.0,17.45,22.12
0.03,0.352,6.791,11.023,86.0,17.8,21.83
-0.171,0.331,6.783,10.997,86.0,16.18,21.5
-0.161,0.166,6.776,10.97,86.0,14.42,21.13
-0.055,0.166,6.772,10.944,81.0,13.64,20.75
0.062,0.29,6.773,10.917,81.0,12.93,20.41
-0.132,0.186,6.775,10.899,81.0,13.0,20.1
-0.234,0.207,6.783,10.873,81.0,12.53,19.84
-0.226,0.228,6.787,10.831,81.0,12.48,19.54
-0.234,0.186,6.79,10.797,81.0,12.47,19.18
-0.238,0.228,6.793,10.761,81.0,12.28,18.97
-0.21,0.145,6.794,10.703,81.0,12.33,18.85
-0.176,0.186,6.794,10.648,81.0,12.29,18.77
-0.246,0.207,6.79,10.592,81.0,12.28,18.71
0.135,0.311,6.788,10.529,81.0,12.29,18.67
-0.266,0.414,6.779,10.464,81.0,12.29,18.64
-0.113,0.186,6.771,10.397,81.0,12.27,18.62
0.01,0.331,6.76,10.327,72.0,12.28,18.62
0.113,0.166,6.749,10.257,72.0,12.27,18.62
-0.116,0.186,6.738,10.187,72.0,12.27,18.63
-0.174,0.249,6.725,10.117,72.0,12.27,18.63
-0.162,0.249,6.711,10.051,72.0,12.26,18.6
-0.171,0.145,6.695,9.988,72.0,12.27,18.56
-0.17,0.249,6.677,9.926,72.0,12.27,18.53
-0.167,0.166,6.66,9.868,72.0,12.26,18.52
-0.126,0.29,6.64,9.81,72.0,12.26,18.53
-0.116,0.166,6.623,9.752,72.0,12.25,18.53
-0.17,0.228,6.605,9.696,72.0,12.26,18.52
0.157,0.456,6.579,9.641,72.0,12.25,18.55
-0.137,0.228,6.55,9.589,72.0,12.25,18.55
-0.031,0.269,6.52,9.541,72.0,12.25,18.56
0.095,0.145,6.492,9.495,72.0,12.23,18.57
0.17,0.124,6.46,9.45,72.0,12.23,18.6
-0.066,0.373,6.431,9.407,72.0,12.23,18.65
-0.099,0.228,6.403,9.364,67.0,12.23,18.74
-0.088,0.29,6.373,9.323,67.0,12.23,18.82
-0.091,0.207,6.345,9.283,67.0,12.23,18.95
-0.081,0.331,6.318,9.245,67.0,12.23,19.17
-0.033,0.166,6.29,9.205,67.0,12.23,19.47
-0.022,0.228,6.268,9.169,67.0,12.23,19.81
-0.068,0.269,6.246,9.133,67.0,12.23,20.13
0.281,0.373,6.221,9.099,67.0,12.23,20.43
-0.018,0.249,6.198,9.065,67.0,12.23,20.77
0.096,0.207,6.178,9.032,67.0,12.23,21.13
0.241,0.249,6.155,9.001,67.0,12.22,21.5
0.296,0.186,6.135,8.971,67.0,12.22,21.89
0.063,0.228,6.115,8.941,67.0,12.22,22.27
0.047,0.249,6.096,8.912,67.0,12.22,22.66
0.054,0.186,6.078,8.883,67.0,12.22,22.99
0.055,0.207,6.061,8.856,67.0,12.22,23.31
0.072,0.166,6.043,8.829,67.0,12.22,23.69
0.128,0.228,6.027,8.801,67.0,12.22,24.07
0.055,0.228,6.009,8.776,67.0,12.22,24.41
0.417,0.352,5.995,8.751,67.0,12.22,24.71
0.073,0.311,5.98,8.727,67.0,12.22,24.94
0.164,0.207,5.965,8.703,67.0,12.22,25.14
0.278,0.228,5.952,8.679,67.0,12.22,25.31
0.397,0.186,5.937,8.657,67.0,12.22,25.46
0.155,0.186,5.926,8.635,67.0,12.21,25.56
0.061,0.207,5.913,8.611,67.0,12.22,25.63
0.058,0.186,5.9,8.591,67.0,12.21,25.62
0.045,0.166,5.889,8.569,67.0,12.21,25.55
0.034,0.186,5.876,8.548,67.0,12.22,25.54
0.055,0.228,5.864,8.527,67.0,12.22,25.5
0.055,0.249,5.853,8.507,67.0,12.22,25.44
-0.028,0.228,5.841,8.487,67.0,12.21,25.35
0.338,0.414,5.83,8.467,67.0,12.21,25.26
-0.074,0.352,5.819,8.447,67.0,12.21,25.09
0.02,0.228,5.809,8.427,67.0,12.21,24.77
0.128,0.207,5.799,8.408,67.0,12.21,24.3
0.179,0.29,5.789,8.39,67.0,12.21,23.72
-0.086,0.186,5.779,8.373,67.0,12.21,23.14
-0.138,0.166,5.769,8.353,72.0,12.21,22.59
-0.142,0.29,5.759,8.335,72.0,12.21,22.02
-0.161,0.186,5.749,8.318,72.0,12.21,21.41
-0.172,0.186,5.74,8.299,72.0,12.21,20.92
-0.177,0.124,5.732,8.282,72.0,12.21,20.53
-0.149,0.249,5.722,8.264,72.0,12.21,20.21
-0.132,0.228,5.712,8.247,72.0,12.21,19.92
-0.201,0.166,5.705,8.232,72.0,12.21,19.65
0.151,0.311,5.696,8.213,72.0,12.21,19.44
-0.208,0.228,5.687,8.197,72.0,12.2,19.23
-0.089,0.145,5.68,8.181,72.0,12.2,19.07
0.032,0.29,5.671,8.165,90.0,12.2,18.93
0.114,0.186,5.664,8.15,90.0,12.21,18.82
-0.131,0.186,5.655,8.134,90.0,12.21,18.75
-0.183,0.228,5.648,8.119,90.0,12.21,18.71
-0.178,0.207,5.64,8.103,90.0,12.21,18.64
-0.188,0.166,5.633,8.088,90.0,12.21,18.56
-0.188,0.249,5.625,8.073,90.0,12.2,18.52
-0.187,0.207,5.618,8.059,90.0,12.2,18.5
-0.182,0.186,5.61,8.045,90.0,12.2,18.5
-0.11,0.166,5.603,8.033,90.0,12.2,18.48
-0.175,0.145,5.597,8.021,90.0,12.2,18.47
-0.143,0.311,5.589,8.006,90.0,12.2,18.47
0.063,0.435,5.583,7.991,90.0,12.2,18.47
-0.112,0.186,5.575,7.977,90.0,12.2,18.48
-0.016,0.228,5.569,7.963,90.0,12.2,18.49
0.123,0.145,5.563,7.948,64.0,12.2,18.51
0.043,0.186,5.557,7.936,64.0,12.2,18.52
-0.153,0.145,5.55,7.921,64.0,12.2,18.52
-0.146,0.145,5.543,7.909,64.0,12.2,18.52
-0.145,0.207,5.537,7.894,64.0,12.2,18.48
-0.15,0.331,5.531,7.881,64.0,12.2,18.44
-0.149,0.228,5.525,7.866,64.0,12.2,18.42
-0.145,0.207,5.52,7.853,64.0,12.2,18.42
-0.075,0.249,5.512,7.84,64.0,12.2,18.44
-0.135,0.166,5.506,7.828,64.0,12.2,18.42
-0.124,0.29,5.5,7.814,64.0,12.2,18.44
0.114,0.331,5.495,7.802,64.0,12.2,18.45
-0.077,0.249,5.488,7.788,64.0,12.2,18.46
0.017,0.186,5.482,7.776,64.0,12.2,18.47
0.163,0.207,5.478,7.763,64.0,12.2,18.47
0.092,0.207,5.473,7.751,64.0,12.2,18.5
-0.108,0.186,5.468,7.74,65.0,12.2,18.51
-0.105,0.124,5.46,7.726,65.0,12.2,18.51
-0.102,0.124,5.455,7.713,65.0,12.2,18.48
-0.106,0.166,5.45,7.702,65.0,12.2,18.43
-0.104,0.186,5.445,7.69,65.0,12.2,18.41
-0.093,0.207,5.44,7.678,65.0,12.2,18.41
-0.029,0.311,5.434,7.665,65.0,12.2,18.45
-0.104,0.166,5.428,7.654,65.0,12.2,18.49
0.185,0.29,5.423,7.641,65.0,12.2,18.54
-0.076,0.249,5.418,7.629,65.0,12.2,18.61
0.0,0.145,5.413,7.618,65.0,12.2,18.7
0.111,0.166,5.408,7.606,65.0,12.2,18.89
0.255,0.249,5.403,7.595,65.0,12.2,19.14
0.068,0.228,5.398,7.584,65.0,12.18,19.41
-0.049,0.207,5.393,7.573,68.0,12.2,19.69
-0.032,0.186,5.388,7.562,68.0,12.2,19.94
-0.032,0.249,5.383,7.549,68.0,12.2,20.09
-0.031,0.166,5.378,7.538,68.0,12.18,20.28
0.027,0.186,5.373,7.527,68.0,12.2,20.58
-0.001,0.186,5.368,7.514,68.0,12.2,20.88
-0.039,0.269,5.365,7.505,68.0,12.18,21.2
0.287,0.29,5.359,7.495,68.0,12.2,21.48
0.042,0.166,5.356,7.482,68.0,12.2,21.8
0.126,0.228,5.351,7.472,68.0,12.2,22.15
0.271,0.249,5.346,7.461,68.0,12.18,22.46
0.255,0.207,5.342,7.45,68.0,12.2,22.75
0.023,0.207,5.338,7.44,68.0,12.2,22.98
0.018,0.186,5.333,7.43,68.0,12.2,23.18
0.018,0.186,5.328,7.42,68.0,12.18,23.24
0.013,0.207,5.323,7.409,68.0,12.18,23.3
0.027,0.186,5.318,7.398,68.0,12.2,23.45
0.072,0.166,5.313,7.388,68.0,12.2,23.6
-0.009,0.207,5.311,7.377,68.0,12.2,23.71
0.375,0.331,5.306,7.365,74.0,12.2,23.76
-0.039,0.249,5.301,7.355,74.0,12.18,23.78
0.091,0.186,5.296,7.345,74.0,12.2,23.76
0.204,0.228,5.294,7.335,74.0,12.18,23.73
0.322,0.207,5.289,7.326,74.0,12.2,23.72
0.073,0.145,5.284,7.316,74.0,12.2,23.68
-0.008,0.29,5.28,7.306,74.0,12.18,23.61
-0.003,0.207,5.276,7.296,74.0,12.18,23.48
-0.018,0.228,5.271,7.286,74.0,12.18,23.31
-0.027,0.207,5.268,7.276,74.0,12.18,23.26
-0.022,0.186,5.264,7.266,74.0,12.18,23.16
0.017,0.249,5.259,7.256,74.0,12.18,23.03
-0.067,0.228,5.255,7.246,74.0,12.2,22.85
0.282,0.29,5.251,7.236,74.0,12.18,22.64
-0.088,0.331,5.246,7.228,74.0,12.18,22.42
0.002,0.186,5.244,7.219,74.0,12.18,22.17
0.104,0.145,5.239,7.209,74.0,12.18,21.88
0.226,0.186,5.235,7.199,74.0,12.18,21.57
-0.001,0.249,5.231,7.189,74.0,12.18,21.23
-0.105,0.186,5.226,7.181,74.0,12.18,20.9
-0.104,0.228,5.224,7.171,74.0,12.18,20.56
-0.117,0.228,5.22,7.161,74.0,12.18,20.15
-0.124,0.228,5.216,7.152,74.0,12.18,19.82
-0.129,0.166,5.213,7.142,74.0,12.18,19.56
-0.132,0.228,5.209,7.134,74.0,12.18,19.34
-0.067,0.186,5.204,7.124,74.0,12.18,19.14
-0.137,0.249,5.202,7.117,74.0,12.18,18.93
-0.113,0.166,5.198,7.107,74.0,12.18,18.77
0.116,0.435,5.194,7.098,74.0,12.18,18.66
-0.082,0.207,5.191,7.089,74.0,12.18,18.6
0.008,0.166,5.187,7.079,74.0,12.18,18.57
0.158,0.269,5.183,7.072,65.0,12.18,18.55
0.078,0.228,5.179,7.062,65.0,12.18,18.54
-0.134,0.186,5.177,7.052,65.0,12.18,18.53
-0.134,0.186,5.172,7.045,65.0,12.18,18.52
-0.133,0.166,5.169,7.035,65.0,12.18,18.46
-0.145,0.166,5.166,7.027,65.0,12.18,18.41
-0.147,0.331,5.162,7.017,65.0,12.18,18.4
-0.149,0.186,5.159,7.01,65.0,12.18,18.4
-0.102,0.145,5.154,7.001,65.0,12.18,18.41
-0.122,0.166,5.152,6.992,65.0,12.18,18.41
-0.168,0.124,5.148,6.982,65.0,12.17,18.41
0.133,0.435,5.144,6.975,65.0,12.18,18.41
-0.114,0.186,5.142,6.967,65.0,12.17,18.42
-0.036,0.186,5.138,6.958,65.0,12.17,18.43
0.107,0.186,5.134,6.95,64.0,12.17,18.45
0.084,0.249,5.131,6.943,64.0,12.17,18.47
-0.119,0.145,5.128,6.934,64.0,12.17,18.47
-0.144,0.207,5.125,6.925,64.0,12.17,18.49
-0.139,0.207,5.122,6.918,64.0,12.17,18.46
-0.143,0.249,5.115,6.902,64.0,12.17,18.38
-0.142,0.145,5.116,6.901,64.0,12.17,18.37
-0.139,0.166,5.112,6.893,64.0,12.17,18.37
-0.092,0.145,5.11,6.886,64.0,12.17,18.4
-0.101,0.29,5.105,6.877,64.0,12.17,18.48
-0.146,0.166,5.101,6.87,64.0,12.17,18.58
0.171,0.394,5.099,6.861,64.0,12.17,18.71
-0.084,0.249,5.095,6.853,64.0,12.17,18.9
0.009,0.145,5.092,6.846,64.0,12.17,19.13
0.154,0.207,5.089,6.838,64.0,12.17,19.36
0.217,0.166,5.085,6.831,64.0,12.17,19.62
-0.044,0.145,5.082,6.823,64.0,12.17,19.87
-0.065,0.166,5.079,6.815,66.0,12.17,20.12
-0.048,0.186,5.075,6.807,66.0,12.17,20.29
-0.044,0.186,5.072,6.8,66.0,12.17,20.46
-0.037,0.228,5.07,6.791,66.0,12.17,20.65
-0.015,0.186,5.066,6.785,66.0,12.18,20.95
0.041,0.186,5.062,6.776,66.0,12.18,21.29
-0.022,0.166,5.059,6.77,66.0,12.18,21.59
0.345,0.331,5.056,6.761,66.0,12.18,21.91
-0.009,0.373,5.052,6.754,66.0,12.18,22.25
0.111,0.207,5.05,6.748,66.0,12.18,22.59
0.23,0.145,5.047,6.74,66.0,12.18,22.95
0.369,0.186,5.045,6.733,66.0,12.18,23.27
0.139,0.186,5.04,6.725,66.0,12.18,23.54
0.036,0.269,5.038,6.718,66.0,12.18,23.77
0.042,0.186,5.035,6.711,66.0,12.18,23.94
0.035,0.166,5.033,6.704,66.0,12.18,24.05
0.026,0.249,5.029,6.697,66.0,12.18,24.18
0.025,0.124,5.025,6.688,66.0,12.18,24.31
0.085,0.207,5.023,6.681,66.0,12.18,24.38
0.003,0.228,5.019,6.674,66.0,12.18,24.4
0.105,0.331,5.017,6.667,69.0,12.18,24.4
0.219,0.435,5.014,6.661,69.0,12.18,24.37
0.061,0.166,5.01,6.653,69.0,12.18,24.29
0.15,0.145,5.008,6.646,69.0,12.18,24.2
0.304,0.207,5.005,6.639,69.0,12.18,24.11
0.152,0.166,5.003,6.632,69.0,12.18,23.95
-0.041,0.186,4.999,6.626,69.0,12.18,23.77
-0.042,0.269,4.995,6.619,69.0,12.18,23.57
-0.071,0.228,4.993,6.611,69.0,12.18,23.28
-0.079,0.207,4.99,6.605,69.0,12.18,22.99
-0.088,0.186,4.988,6.597,69.0,12.18,22.71
-0.087,0.249,4.984,6.59,69.0,12.18,22.38
-0.04,0.207,4.98,6.584,69.0,12.18,22.07
-0.124,0.228,4.975,6.571,69.0,12.18,21.43
0.145,0.311,4.975,6.571,69.0,12.18,21.39
-0.072,0.269,4.972,6.564,69.0,12.18,21.09
-0.055,0.186,4.969,6.557,69.0,12.18,20.83
0.04,0.166,4.967,6.551,69.0,12.2,20.58
0.18,0.166,4.964,6.544,69.0,12.18,20.35
-0.008,0.29,4.962,6.539,69.0,12.18,20.14
-0.154,0.228,4.958,6.532,69.0,12.18,19.94
-0.15,0.145,4.955,6.525,69.0,12.18,19.71
-0.158,0.186,4.954,6.519,69.0,12.18,19.42
-0.165,0.207,4.951,6.512,69.0,12.18,19.17
-0.166,0.166,4.948,6.505,69.0,12.18,18.99
-0.165,0.249,4.946,6.499,69.0,12.18,18.84
-0.14,0.166,4.943,6.493,69.0,12.18,18.71
-0.117,0.207,4.94,6.487,69.0,12.18,18.61
-0.179,0.186,4.938,6.48,69.0,12.18,18.54
0.198,0.311,4.935,6.474,69.0,12.18,18.5
-0.199,0.228,4.932,6.467,69.0,12.18,18.47
-0.06,0.249,4.93,6.462,69.0,12.18,18.46
0.06,0.166,4.927,6.454,63.0,12.18,18.46
0.192,0.207,4.925,6.45,63.0,12.18,18.46
-0.048,0.207,4.922,6.443,63.0,12.18,18.46
-0.135,0.228,4.92,6.437,63.0,12.18,18.46
-0.123,0.186,4.917,6.431,63.0,12.18,18.43
-0.126,0.228,4.915,6.425,63.0,12.18,18.38
-0.128,0.249,4.912,6.42,63.0,12.18,18.35
-0.127,0.166,4.908,6.412,63.0,12.18,18.35
-0.123,0.186,4.906,6.407,63.0,12.18,18.35
-0.065,0.186,4.903,6.4,63.0,12.18,18.36
-0.114,0.145,4.901,6.395,63.0,12.17,18.35
-0.13,0.29,4.898,6.388,63.0,12.17,18.37
0.168,0.435,4.896,6.382,63.0,12.17,18.37
-0.059,0.124,4.893,6.377,63.0,12.17,18.39
0.02,0.186,4.891,6.371,63.0,12.17,18.4
0.167,0.166,4.888,6.365,63.0,12.17,18.41
0.158,0.207,4.886,6.36,63.0,12.17,18.44
-0.092,0.166,4.883,6.355,64.0,12.17,18.45
-0.102,0.145,4.881,6.349,64.0,12.17,18.46
-0.099,0.228,4.878,6.343,64.0,12.17,18.42
-0.109,0.145,4.876,6.338,64.0,12.17,18.36
-0.107,0.228,4.873,6.331,64.0,12.17,18.35
-0.103,0.186,4.872,6.325,64.0,12.17,18.35
-0.083,0.186,4.868,6.32,64.0,12.17,18.36
-0.043,0.166,4.866,6.314,64.0,12.17,18.42
-0.107,0.207,4.863,6.31,64.0,12.17,18.51
0.269,0.249,4.861,6.303,64.0,12.17,18.65
-0.126,0.394,4.859,6.298,64.0,12.17,18.86
0.015,0.145,4.856,6.293,64.0,12.17,19.11
0.135,0.186,4.854,6.288,64.0,12.17,19.35
0.287,0.249,4.851,6.28,64.0,12.17,19.65
0.066,0.228,4.849,6.275,64.0,12.17,19.94
-0.032,0.207,4.846,6.271,64.0,12.17,20.26
-0.019,0.207,4.844,6.266,64.0,12.17,20.53
-0.018,0.145,4.841,6.261,64.0,12.17,20.73
-0.012,0.228,4.839,6.256,64.0,12.17,21.01
-0.002,0.145,4.836,6.248,64.0,12.17,21.35
0.067,0.145,4.834,6.243,64.0,12.17,21.71
0.002,0.269,4.831,6.238,64.0,12.17,22.07
0.133,0.228,4.829,6.233,64.0,12.17,22.41
0.225,0.29,4.828,6.228,64.0,12.17,22.76
0.107,0.186,4.825,6.223,64.0,12.17,23.12
0.211,0.186,4.823,6.218,64.0,12.17,23.45
0.374,0.228,4.82,6.211,64.0,12.17,23.74
0.238,0.228,4.818,6.206,64.0,12.17,23.98
0.055,0.311,4.815,6.201,64.0,12.17,24.2
0.056,0.228,4.813,6.196,64.0,12.17,24.36
0.047,0.166,4.81,6.191,64.0,12.17,24.46
0.034,0.29,4.808,6.186,64.0,12.17,24.55
0.036,0.186,4.805,6.181,64.0,12.17,24.63
0.084,0.166,4.804,6.176,64.0,12.17,24.65
-0.005,0.186,4.801,6.171,64.0,12.17,24.61
0.282,0.29,4.799,6.166,69.0,12.17,24.51
0.037,0.331,4.796,6.161,69.0,12.17,24.38
0.05,0.249,4.794,6.154,69.0,12.18,24.19
0.14,0.166,4.791,6.15,69.0,12.18,23.98
0.271,0.166,4.789,6.145,69.0,12.18,23.76
0.057,0.207,4.788,6.141,69.0,12.18,23.45
-0.088,0.207,4.785,6.136,69.0,12.18,23.05
-0.09,0.186,4.783,6.131,69.0,12.18,22.56
-0.106,0.124,4.78,6.126,69.0,12.18,21.98
-0.118,0.249,4.778,6.121,69.0,12.18,21.48
-0.128,0.166,4.775,6.116,69.0,12.18,21.1
-0.073,0.207,4.773,6.111,69.0,12.18,20.78
-0.129,0.186,4.771,6.104,69.0,12.18,20.48
-0.166,0.207,4.768,6.101,69.0,12.18,20.18
0.148,0.373,4.767,6.097,69.0,12.18,19.9
-0.106,0.207,4.764,6.092,69.0,12.18,19.66
-0.035,0.145,4.762,6.087,69.0,12.18,19.44
0.107,0.186,4.761,6.082,69.0,12.18,19.24
0.107,0.269,4.758,6.077,69.0,12.18,19.09
-0.147,0.186,4.756,6.072,69.0,12.18,18.97
-0.16,0.186,4.753,6.067,69.0,12.18,18.84
-0.158,0.228,4.752,6.062,69.0,12.18,18.65
-0.169,0.269,4.749,6.058,69.0,12.18,18.53
-0.171,0.186,4.747,6.052,69.0,12.18,18.47
-0.171,0.228,4.744,6.049,69.0,12.18,18.43
-0.102,0.207,4.742,6.044,69.0,12.18,18.41
-0.164,0.186,4.739,6.039,69.0,12.18,18.39
-0.155,0.228,4.737,6.037,69.0,12.18,18.38
0.103,0.394,4.736,6.032,69.0,12.17,18.37
-0.108,0.207,4.733,6.029,69.0,12.18,18.37
-0.021,0.145,4.732,6.026,69.0,12.17,18.38
0.132,0.186,4.729,6.022,67.0,12.17,18.4
0.087,0.186,4.728,6.019,67.0,12.17,18.41
-0.143,0.166,4.726,6.016,67.0,12.17,18.43
-0.144,0.145,4.723,6.012,67.0,12.17,18.44
-0.14,0.186,4.722,6.009,67.0,12.17,18.39
-0.147,0.207,4.719,6.005,67.0,12.17,18.34
-0.132,0.166,4.718,6.001,67.0,12.17,18.33
-0.113,0.145,4.716,5.997,67.0,12.17,18.33
-0.078,0.249,4.713,5.994,67.0,12.17,18.35
-0.156,0.166,4.711,5.99,67.0,12.17,18.35
0.189,0.414,4.709,5.985,67.0,12.18,18.35
-0.174,0.373,4.706,5.977,67.0,12.18,18.37
-0.055,0.166,4.706,5.976,67.0,12.18,18.37
0.057,0.145,4.703,5.974,68.0,12.18,18.39
0.212,0.186,4.702,5.97,68.0,12.18,18.41
0.013,0.207,4.699,5.967,68.0,12.18,18.43
-0.105,0.145,4.697,5.964,68.0,12.18,18.48
-0.088,0.207,4.696,5.96,68.0,12.18,18.54
-0.088,0.186,4.693,5.955,68.0,12.18,18.59
-0.086,0.207,4.692,5.952,68.0,12.18,18.71
-0.072,0.186,4.689,5.947,68.0,12.18,18.95
0.001,0.145,4.688,5.944,68.0,12.18,19.23
-0.064,0.207,4.686,5.94,68.0,12.18,19.53
0.053,0.228,4.682,5.935,68.0,12.18,19.78
0.147,0.331,4.681,5.932,68.0,12.18,20.07
0.032,0.186,4.679,5.927,68.0,12.18,20.36
0.134,0.166,4.677,5.922,68.0,12.18,20.67
0.294,0.166,4.676,5.92,68.0,12.18,20.98
0.179,0.145,4.674,5.915,68.0,12.18,21.32
-0.004,0.186,4.671,5.91,68.0,12.18,21.64
0.0,0.207,4.669,5.908,68.0,12.18,21.95
0.0,0.145,4.667,5.903,68.0,12.18,22.16
-0.005,0.186,4.665,5.9,68.0,12.18,22.34
0.018,0.186,4.662,5.895,68.0,12.18,22.57
0.045,0.186,4.661,5.892,68.0,12.17,22.76
-0.019,0.186,4.659,5.888,68.0,12.17,22.91
0.374,0.311,4.656,5.884,70.0,12.18,23.0
-0.045,0.269,4.655,5.88,70.0,12.18,23.05
0.09,0.228,4.652,5.878,70.0,12.18,23.08
0.208,0.186,4.65,5.873,70.0,12.17,23.11
0.327,0.166,4.649,5.869,70.0,12.17,23.12
0.071,0.269,4.646,5.865,70.0,12.18,23.05
-0.005,0.186,4.644,5.863,70.0,12.18,22.97
-0.002,0.145,4.641,5.858,56.0,12.17,22.83
-0.012,0.249,4.64,5.854,56.0,12.18,22.61
-0.019,0.166,4.637,5.85,56.0,12.17,22.51
-0.005,0.249,4.635,5.845,56.0,12.17,22.39
0.028,0.186,4.634,5.843,56.0,12.17,22.27
-0.051,0.228,4.631,5.838,56.0,12.17,22.13
0.331,0.414,4.629,5.835,56.0,12.17,21.94
-0.091,0.456,4.627,5.831,56.0,12.17,21.73
0.034,0.124,4.625,5.828,56.0,12.17,21.46
0.136,0.29,4.624,5.823,56.0,12.17,21.17
0.26,0.249,4.621,5.82,56.0,12.17,20.9
0.025,0.186,4.619,5.816,56.0,12.17,20.61
-0.08,0.228,4.617,5.812,56.0,12.17,20.33
-0.08,0.249,4.615,5.808,56.0,12.17,20.03
-0.094,0.186,4.614,5.803,56.0,12.17,19.66
-0.102,0.186,4.611,5.801,56.0,12.17,19.36
-0.104,0.207,4.609,5.796,56.0,12.17,19.14
-0.085,0.186,4.606,5.791,56.0,12.18,18.96
-0.046,0.207,4.605,5.788,56.0,12.17,18.81
-0.124,0.249,4.602,5.783,56.0,12.17,18.66
0.252,0.207,4.601,5.78,56.0,12.17,18.56
-0.164,0.373,4.599,5.776,56.0,12.17,18.51
-0.023,0.228,4.597,5.771,56.0,12.18,18.47
0.09,0.207,4.595,5.767,66.0,12.18,18.45
0.226,0.249,4.594,5.763,66.0,12.18,18.45
0.005,0.207,4.592,5.76,66.0,12.17,18.45
-0.103,0.207,4.589,5.756,66.0,12.18,18.45
-0.097,0.186,4.587,5.752,66.0,12.18,18.42
-0.106,0.207,4.585,5.748,66.0,12.18,18.37
-0.108,0.186,4.584,5.746,66.0,12.18,18.34
-0.108,0.145,4.582,5.741,66.0,12.17,18.33
-0.107,0.269,4.579,5.738,66.0,12.18,18.34
-0.043,0.228,4.578,5.734,66.0,12.18,18.34
-0.111,0.166,4.575,5.73,66.0,12.18,18.34
-0.1,0.311,4.573,5.726,66.0,12.17,18.35
0.15,0.352,4.572,5.721,66.0,12.18,18.36
-0.057,0.207,4.569,5.719,66.0,12.18,18.36
0.03,0.269,4.568,5.716,66.0,12.18,18.39
0.184,0.186,4.565,5.711,64.0,12.18,18.41
0.152,0.186,4.564,5.708,64.0,12.17,18.45
-0.079,0.249,4.562,5.704,64.0,12.18,18.54
-0.078,0.145,4.559,5.7,64.0,12.17,18.69
-0.073,0.145,4.559,5.696,64.0,12.17,18.83
-0.072,0.207,4.557,5.693,64.0,12.17,18.98
-0.066,0.166,4.554,5.689,64.0,12.17,19.23
-0.035,0.228,4.552,5.686,64.0,12.17,19.51
-0.001,0.186,4.55,5.683,64.0,12.18,19.8
-0.063,0.186,4.548,5.679,64.0,12.18,20.09
0.311,0.352,4.545,5.675,64.0,12.18,20.41
-0.07,0.269,4.544,5.671,64.0,12.18,20.72
0.065,0.166,4.542,5.669,64.0,12.18,21.06
0.191,0.145,4.54,5.665,64.0,12.18,21.4
0.306,0.186,4.538,5.661,64.0,12.18,21.75
0.058,0.145,4.537,5.658,64.0,12.18,22.09
-0.013,0.228,4.534,5.656,69.0,12.17,22.43
-0.01,0.186,4.533,5.652,69.0,12.17,22.66
-0.022,0.186,4.53,5.648,69.0,12.18,22.78
-0.027,0.29,4.529,5.644,69.0,12.18,22.91
0.002,0.186,4.527,5.642,69.0,12.18,23.03
0.006,0.186,4.524,5.638,69.0,12.17,23.11
-0.057,0.186,4.523,5.634,69.0,12.18,23.08
0.307,0.394,4.52,5.631,69.0,12.18,23.03
-0.066,0.186,4.519,5.627,69.0,12.17,22.96
0.043,0.166,4.517,5.624,69.0,12.17,22.86
0.163,0.456,4.515,5.621,69.0,12.18,22.72
0.254,0.228,4.513,5.618,69.0,12.18,22.54
-0.01,0.207,4.51,5.614,69.0,12.18,22.31
-0.072,0.166,4.509,5.611,71.0,12.18,22.06
-0.073,0.228,4.507,5.608,71.0,12.18,21.7
-0.087,0.207,4.506,5.604,71.0,12.18,21.29
-0.098,0.186,4.503,5.602,71.0,12.18,20.96
-0.083,0.186,4.502,5.598,71.0,12.18,20.67
-0.054,0.207,4.5,5.594,71.0,12.18,20.41
-0.133,0.249,4.498,5.592,71.0,12.18,20.17
0.243,0.269,4.496,5.589,71.0,12.18,19.91
-0.185,0.311,4.495,5.586,71.0,12.18,19.68
-0.049,0.269,4.492,5.582,71.0,12.18,19.48
0.059,0.124,4.491,5.579,70.0,12.18,19.31
0.183,0.186,4.49,5.577,70.0,12.18,19.15
-0.054,0.186,4.487,5.572,70.0,12.18,19.01
-0.149,0.269,4.485,5.569,70.0,12.18,18.87
-0.143,0.186,4.485,5.567,70.0,12.18,18.7
-0.152,0.207,4.481,5.564,70.0,12.18,18.51
-0.158,0.186,4.48,5.561,70.0,12.18,18.44
-0.16,0.29,4.478,5.559,70.0,12.18,18.38
-0.102,0.249,4.476,5.556,70.0,12.18,18.35
-0.14,0.166,4.475,5.554,70.0,12.18,18.33
-0.18,0.269,4.472,5.55,70.0,12.18,18.31
0.129,0.497,4.47,5.549,70.0,12.18,18.3
-0.109,0.269,4.468,5.545,70.0,12.18,18.3
-0.034,0.186,4.467,5.544,70.0,12.18,18.3
0.108,0.207,4.465,5.54,68.0,12.18,18.32
0.136,0.249,4.463,5.537,68.0,12.18,18.33
-0.124,0.249,4.461,5.535,68.0,12.18,18.34
-0.144,0.249,4.46,5.532,68.0,12.18,18.35
-0.138,0.228,4.457,5.53,68.0,12.18,18.31
-0.142,0.269,4.456,5.526,68.0,12.18,18.27
-0.139,0.186,4.455,5.522,68.0,12.18,18.25
-0.132,0.249,4.452,5.52,68.0,12.18,18.25
-0.057,0.29,4.45,5.517,68.0,12.18,18.32
-0.123,0.166,4.448,5.515,68.0,12.18,18.42
-0.035,0.311,4.447,5.512,68.0,12.18,18.57
0.101,0.352,4.445,5.509,68.0,12.18,18.82
-0.032,0.228,4.442,5.506,68.0,12.18,19.13
0.064,0.207,4.441,5.504,68.0,12.18,19.45
0.225,0.207,4.438,5.5,68.0,12.18,19.81
0.144,0.186,4.437,5.497,68.0,12.18,20.19
-0.057,0.145,4.435,5.495,67.0,12.18,20.57
-0.053,0.249,4.433,5.491,67.0,12.18,20.93
-0.052,0.228,4.432,5.489,67.0,12.18,21.24
-0.055,0.228,4.43,5.485,67.0,12.18,21.58
-0.027,0.166,4.428,5.482,67.0,12.18,22.0
-0.003,0.249,4.427,5.479,67.0,12.18,22.38
-0.072,0.207,4.425,5.475,67.0,12.18,22.75
0.315,0.331,4.423,5.473,67.0,12.18,23.01
-0.094,0.331,4.422,5.47,67.0,12.18,23.25
0.038,0.186,4.42,5.467,67.0,12.18,23.45
0.157,0.249,4.418,5.463,67.0,12.18,23.59
0.271,0.145,4.416,5.46,67.0,12.18,23.7
0.014,0.207,4.415,5.457,67.0,12.18,23.74
-0.057,0.186,4.413,5.454,73.0,12.17,23.79
-0.053,0.186,4.411,5.452,73.0,12.18,23.73
-0.063,0.207,4.409,5.449,73.0,12.18,23.63
-0.067,0.166,4.408,5.445,73.0,12.18,23.61
-0.043,0.207,4.405,5.443,73.0,12.18,23.54
-0.023,0.186,4.404,5.439,73.0,12.18,23.43
-0.096,0.186,4.403,5.437,73.0,12.18,23.31
0.293,0.352,4.4,5.433,73.0,12.18,23.18
-0.121,0.311,4.398,5.43,73.0,12.18,23.03
0.0,0.186,4.398,5.427,73.0,12.18,22.82
0.117,0.228,4.395,5.425,73.0,12.17,22.55
0.227,0.207,4.393,5.422,73.0,12.17,22.25
-0.027,0.186,4.39,5.419,73.0,12.18,21.89
-0.103,0.166,4.389,5.417,71.0,12.17,21.53
-0.102,0.228,4.388,5.413,71.0,12.17,21.08
-0.118,0.207,4.385,5.41,71.0,12.18,20.62
-0.127,0.207,4.384,5.407,71.0,12.18,20.22
-0.132,0.145,4.383,5.405,71.0,12.18,19.91
-0.093,0.186,4.38,5.402,71.0,12.18,19.63
-0.103,0.186,4.378,5.399,71.0,12.18,19.39
-0.159,0.166,4.376,5.397,71.0,12.18,19.14
0.165,0.477,4.375,5.394,71.0,12.18,18.95
-0.075,0.29,4.373,5.392,71.0,12.18,18.77
-0.014,0.29,4.371,5.388,71.0,12.18,18.65
0.089,0.207,4.37,5.387,67.0,12.18,18.57
0.179,0.249,4.368,5.383,67.0,12.18,18.54
-0.079,0.186,4.368,5.381,67.0,12.18,18.51
-0.128,0.166,4.364,5.376,67.0,12.18,18.43
-0.122,0.166,4.363,5.375,67.0,12.18,18.43
-0.131,0.207,4.361,5.372,67.0,12.18,18.36
-0.13,0.145,4.36,5.37,67.0,12.18,18.34
-0.129,0.124,4.358,5.367,67.0,12.18,18.33
-0.107,0.186,4.356,5.365,67.0,12.18,18.33
-0.062,0.207,4.354,5.361,67.0,12.18,18.33
-0.135,0.228,4.353,5.358,67.0,12.18,18.33
0.236,0.331,4.35,5.356,67.0,12.18,18.33
-0.171,0.29,4.349,5.353,67.0,12.18,18.34
-0.028,0.228,4.348,5.351,67.0,12.18,18.35
0.083,0.249,4.345,5.348,67.0,12.18,18.36
0.219,0.186,4.344,5.345,67.0,12.18,18.39
0.006,0.249,4.343,5.343,67.0,12.18,18.4
-0.098,0.166,4.34,5.34,65.0,12.18,18.42
-0.088,0.186,4.339,5.337,65.0,12.18,18.41
-0.09,0.228,4.338,5.335,65.0,12.18,18.35
-0.086,0.249,4.335,5.332,65.0,12.17,18.33
-0.082,0.186,4.333,5.328,65.0,12.18,18.38
-0.064,0.186,4.332,5.326,65.0,12.18,18.5
-0.005,0.249,4.331,5.323,65.0,12.17,18.66
-0.075,0.207,4.328,5.321,65.0,12.18,18.89
0.265,0.331,4.327,5.317,65.0,12.18,19.12
-0.07,0.311,4.324,5.316,65.0,12.17,19.38
0.036,0.228,4.323,5.312,65.0,12.18,19.66
0.144,0.228,4.321,5.31,65.0,12.18,19.95
0.293,0.186,4.319,5.307,65.0,12.18,20.28
0.115,0.166,4.317,5.305,65.0,12.18,20.61
-0.013,0.207,4.316,5.303,65.0,12.18,20.94
-0.005,0.186,4.313,5.3,65.0,12.18,21.22
-0.014,0.186,4.312,5.298,65.0,12.18,21.44
-0.018,0.228,4.311,5.295,65.0,12.18,21.73
0.019,0.228,4.308,5.293,65.0,12.18,22.1
0.008,0.207,4.307,5.289,65.0,12.18,22.41
-0.048,0.186,4.306,5.286,65.0,12.18,22.62
0.291,0.435,4.303,5.284,65.0,12.18,22.67
-0.022,0.269,4.301,5.281,65.0,12.18,22.63
0.064,0.207,4.301,5.279,65.0,12.18,22.5
0.186,0.207,4.298,5.276,65.0,12.18,22.36
0.242,0.145,4.296,5.274,65.0,12.18,22.18
-0.024,0.207,4.294,5.271,65.0,12.18,21.96
-0.067,0.166,4.293,5.269,73.0,12.18,21.73
-0.072,0.228,4.291,5.266,73.0,12.18,21.38
-0.089,0.186,4.289,5.264,73.0,12.18,20.96
-0.097,0.207,4.288,5.261,73.0,12.18,20.63
-0.036,0.207,4.286,5.258,73.0,12.18,20.36
-0.11,0.269,4.284,5.255,73.0,12.18,20.11
-0.112,0.249,4.282,5.253,73.0,12.18,19.87
0.14,0.394,4.281,5.25,73.0,12.18,19.61
-0.081,0.228,4.279,5.249,73.0,12.18,19.36
0.002,0.166,4.277,5.245,73.0,12.18,19.17
0.148,0.124,4.276,5.243,72.0,12.18,18.99
0.102,0.186,4.274,5.24,72.0,12.18,18.84
-0.121,0.186,4.273,5.239,72.0,12.18,18.71
-0.121,0.166,4.271,5.235,72.0,12.18,18.6
-0.123,0.186,4.269,5.234,72.0,12.18,18.49
-0.131,0.166,4.268,5.23,72.0,12.18,18.4
-0.132,0.207,4.266,5.228,72.0,12.18,18.35
-0.104,0.207,4.263,5.225,72.0,12.18,18.33
-0.12,0.145,4.262,5.223,72.0,12.18,18.33
-0.15,0.166,4.261,5.221,72.0,12.18,18.3
0.203,0.414,4.258,5.218,72.0,12.18,18.3
-0.144,0.249,4.257,5.216,72.0,12.18,18.3
-0.026,0.145,4.256,5.214,72.0,12.18,18.3
0.098,0.145,4.251,5.211,69.0,12.18,18.34
0.21,0.145,4.252,5.211,69.0,12.18,18.35
-0.036,0.228,4.251,5.208,69.0,12.18,18.36
-0.103,0.228,4.248,5.206,69.0,12.18,18.38
-0.096,0.228,4.247,5.203,69.0,12.17,18.35
-0.104,0.269,4.246,5.201,69.0,12.18,18.31
-0.105,0.228,4.244,5.198,69.0,12.18,18.29
-0.102,0.145,4.242,5.196,69.0,12.18,18.29
-0.033,0.207,4.24,5.194,69.0,12.18,18.3
-0.079,0.269,4.239,5.192,69.0,12.18,18.3
-0.097,0.207,4.237,5.189,69.0,12.18,18.3
0.188,0.373,4.235,5.188,69.0,12.18,18.32
-0.035,0.186,4.234,5.186,69.0,12.18,18.33
0.044,0.186,4.231,5.182,69.0,12.18,18.35
0.188,0.145,4.23,5.181,69.0,12.18,18.36
0.189,0.207,4.229,5.178,69.0,12.18,18.4
-0.053,0.166,4.226,5.176,69.0,12.18,18.41
-0.058,0.228,4.226,5.173,68.0,12.18,18.43
-0.055,0.166,4.224,5.172,68.0,12.18,18.44
-0.058,0.124,4.222,5.169,68.0,12.18,18.49
-0.057,0.186,4.221,5.167,68.0,12.18,18.63
-0.017,0.207,4.219,5.164,68.0,12.18,18.85
0.0,0.269,4.216,5.162,68.0,12.18,19.11
-0.049,0.186,4.215,5.159,68.0,12.18,19.36
0.297,0.435,4.214,5.157,68.0,12.18,19.61
-0.019,0.249,4.211,5.154,68.0,12.18,19.87
0.095,0.186,4.21,5.152,68.0,12.17,20.14
0.281,0.269,4.209,5.151,68.0,12.18,20.44
0.28,0.228,4.207,5.148,68.0,12.18,20.76
0.071,0.145,4.205,5.146,68.0,12.18,21.08
0.022,0.186,4.204,5.143,68.0,12.18,21.37
0.024,0.166,4.201,5.141,68.0,12.18,21.58
0.016,0.207,4.197,5.136,68.0,12.18,22.04
0.016,0.186,4.199,5.136,68.0,12.18,22.07
0.07,0.207,4.196,5.133,68.0,12.18,22.37
0.04,0.186,4.195,5.132,68.0,12.18,22.66
-0.001,0.269,4.194,5.129,68.0,12.18,22.89
0.341,0.373,4.191,5.127,69.0,12.18,23.08
0.054,0.249,4.191,5.125,69.0,12.18,23.24
0.133,0.269,4.189,5.122,69.0,12.18,23.35
0.265,0.228,4.186,5.12,69.0,12.18,23.43
0.298,0.269,4.186,5.117,69.0,12.18,23.47
0.039,0.207,4.184,5.116,69.0,12.18,23.47
0.012,0.249,4.182,5.114,69.0,12.18,23.46
0.007,0.186,4.181,5.111,69.0,12.18,23.36
-0.006,0.249,4.179,5.11,55.0,12.18,23.27
-0.015,0.249,4.177,5.107,55.0,12.18,23.27
-0.011,0.166,4.176,5.105,55.0,12.18,23.17
0.044,0.228,4.174,5.101,55.0,12.18,23.06
-0.042,0.186,4.172,5.1,55.0,12.18,22.91
0.117,0.269,4.17,5.097,55.0,12.18,22.76
0.105,0.311,4.169,5.095,55.0,12.18,22.56
0.007,0.228,4.166,5.092,55.0,12.18,22.31
0.091,0.228,4.165,5.091,55.0,12.18,22.03
0.228,0.186,4.164,5.089,55.0,12.18,21.72
0.105,0.145,4.161,5.086,55.0,12.18,21.42
-0.084,0.269,4.161,5.084,55.0,12.18,21.11
-0.087,0.228,4.159,5.081,55.0,12.18,20.8
-0.1,0.186,4.156,5.079,55.0,12.18,20.4
-0.113,0.166,4.156,5.077,55.0,12.18,20.04
-0.12,0.228,4.154,5.075,55.0,12.18,19.78
-0.126,0.166,4.153,5.072,55.0,12.18,19.55
-0.123,0.166,4.152,5.07,55.0,12.18,19.34
-0.065,0.269,4.15,5.067,55.0,12.18,19.13
-0.146,0.186,4.148,5.066,55.0,12.18,18.93
0.017,0.29,4.147,5.064,55.0,12.18,18.75
-0.007,0.394,4.144,5.061,55.0,12.18,18.61
-0.077,0.228,4.144,5.059,55.0,12.18,18.54
0.015,0.166,4.142,5.056,62.0,12.18,18.5
0.164,0.166,4.14,5.055,62.0,12.18,18.47
0.062,0.207,4.139,5.052,62.0,12.18,18.45
-0.133,0.186,4.137,5.05,62.0,12.18,18.44
-0.129,0.228,4.135,5.047,62.0,12.18,18.41
-0.13,0.269,4.134,5.046,62.0,12.18,18.34
-0.138,0.186,4.132,5.044,62.0,12.18,18.3
-0.135,0.228,4.13,5.041,62.0,12.18,18.28
-0.133,0.228,4.129,5.039,62.0,12.18,18.29
-0.129,0.207,4.127,5.037,62.0,12.18,18.29
-0.069,0.166,4.127,5.035,62.0,12.17,18.28
-0.126,0.166,4.124,5.034,62.0,12.18,18.29
-0.119,0.29,4.123,5.032,62.0,12.18,18.3
0.136,0.29,4.122,5.029,62.0,12.18,18.3
-0.073,0.207,4.119,5.028,62.0,12.18,18.33
0.01,0.228,4.118,5.025,62.0,12.18,18.34
0.152,0.145,4.117,5.023,60.0,12.18,18.35
0.14,0.186,4.115,5.022,60.0,12.18,18.37
-0.099,0.207,4.114,5.019,60.0,12.18,18.38
-0.103,0.207,4.112,5.017,60.0,12.18,18.39
-0.1,0.186,4.11,5.014,60.0,12.18,18.35
-0.102,0.186,4.109,5.013,60.0,12.18,18.34
-0.097,0.186,4.108,5.01,60.0,12.18,18.44
-0.09,0.186,4.105,5.008,60.0,12.18,18.55
-0.063,0.186,4.104,5.007,60.0,12.18,18.75
-0.022,0.207,4.102,5.004,60.0,12.18,18.99
-0.084,0.186,4.1,5.002,60.0,12.18,19.21
0.29,0.311,4.099,4.999,60.0,12.18,19.43
-0.096,0.311,4.097,4.998,60.0,12.18,19.67
0.039,0.249,4.097,4.995,60.0,12.18,19.89
0.156,0.269,4.094,4.994,60.0,12.18,20.13
0.292,0.186,4.093,4.992,60.0,12.18,20.4
0.069,0.207,4.09,4.989,60.0,12.18,20.64
-0.021,0.145,4.089,4.987,64.0,12.18,20.9
-0.012,0.166,4.088,4.985,64.0,12.18,21.09
-0.017,0.145,4.087,4.983,64.0,12.18,21.21
-0.016,0.207,4.085,4.982,64.0,12.18,21.39
-0.011,0.186,4.083,4.979,64.0,12.18,21.66
0.054,0.186,4.082,4.978,64.0,12.18,21.93
-0.002,0.207,4.079,4.974,64.0,12.18,22.17
0.007,0.29,4.078,4.973,64.0,12.18,22.37
0.283,0.394,4.077,4.97,64.0,12.18,22.58
0.052,0.186,4.075,4.969,64.0,12.18,22.78
0.135,0.186,4.074,4.967,64.0,12.18,22.95
0.283,0.29,4.072,4.965,64.0,12.18,23.08
0.238,0.166,4.072,4.962,64.0,12.18,23.13
0.001,0.166,4.069,4.96,64.0,12.18,23.15
-0.01,0.207,4.068,4.959,68.0,12.18,23.14
-0.015,0.207,4.067,4.957,68.0,12.18,22.99
-0.032,0.166,4.065,4.954,68.0,12.18,22.89
-0.04,0.166,4.063,4.953,68.0,12.18,22.82
-0.031,0.207,4.061,4.951,68.0,12.18,22.65
0.007,0.145,4.06,4.948,68.0,12.18,22.49
-0.074,0.166,4.058,4.947,68.0,12.18,22.26
0.305,0.352,4.057,4.945,68.0,12.18,22.01
-0.119,0.394,4.056,4.942,68.0,12.18,21.78
0.002,0.228,4.055,4.941,68.0,12.18,21.52
0.103,0.145,4.053,4.938,68.0,12.18,21.23
0.237,0.166,4.051,4.936,68.0,12.18,20.94
0.018,0.207,4.05,4.935,68.0,12.18,20.68
-0.106,0.207,4.047,4.932,68.0,12.18,20.42
-0.103,0.228,4.047,4.93,68.0,12.18,20.13
-0.117,0.228,4.045,4.928,68.0,12.18,19.77
-0.126,0.228,4.045,4.926,68.0,12.18,19.49
-0.13,0.228,4.042,4.925,68.0,12.18,19.28
-0.131,0.207,4.042,4.922,68.0,12.18,19.1
-0.069,0.249,4.04,4.92,68.0,12.18,18.96
-0.118,0.166,4.038,4.918,68.0,12.18,18.8
-0.141,0.311,4.037,4.916,68.0,12.18,18.67
0.157,0.58,4.035,4.915,68.0,12.18,18.56
-0.076,0.186,4.033,4.912,68.0,12.18,18.51
0.002,0.249,4.032,4.911,68.0,12.18,18.47
0.15,0.186,4.031,4.908,64.0,12.18,18.45
0.166,0.331,4.03,4.907,64.0,12.18,18.44
-0.094,0.186,4.027,4.905,64.0,12.18,18.42
-0.109,0.186,4.027,4.902,64.0,12.18,18.41
-0.107,0.186,4.025,4.901,64.0,12.18,18.35
-0.118,0.331,4.023,4.9,64.0,12.18,18.3
-0.121,0.269,4.022,4.897,64.0,12.18,18.28
-0.122,0.249,4.021,4.895,64.0,12.18,18.28
-0.115,0.249,4.02,4.892,64.0,12.18,18.29
-0.053,0.249,4.017,4.891,64.0,12.18,18.28
-0.127,0.249,4.016,4.89,64.0,12.18,18.28
0.007,0.249,4.015,4.887,64.0,12.18,18.29
0.028,0.352,4.013,4.885,64.0,12.18,18.3
-0.059,0.166,4.012,4.883,64.0,12.18,18.31
0.032,0.269,4.011,4.882,63.0,12.18,18.33
0.184,0.186,4.01,4.88,63.0,12.18,18.34
0.097,0.249,4.007,4.877,63.0,12.18,18.36
-0.111,0.166,4.006,4.876,63.0,12.18,18.38
-0.11,0.186,4.005,4.873,63.0,12.18,18.37
-0.109,0.166,4.003,4.872,63.0,12.18,18.32
-0.117,0.207,4.002,4.87,63.0,12.18,18.27
-0.114,0.228,4.001,4.867,63.0,12.18,18.26
-0.111,0.166,4.0,4.867,63.0,12.18,18.28
-0.083,0.166,3.997,4.865,63.0,12.18,18.35
-0.05,0.228,3.996,4.862,63.0,12.18,18.43
-0.111,0.207,3.995,4.86,63.0,12.18,18.55
0.249,0.373,3.993,4.86,63.0,12.18,18.69
-0.122,0.373,3.992,4.858,63.0,12.18,18.91
0.005,0.124,3.99,4.855,63.0,12.18,19.14
0.123,0.207,3.99,4.854,63.0,12.18,19.38
0.26,0.186,3.987,4.851,63.0,12.18,19.64
0.026,0.207,3.986,4.85,63.0,12.18,19.86
-0.066,0.166,3.985,4.848,63.0,12.18,20.12
-0.057,0.207,3.983,4.846,63.0,12.18,20.29
-0.061,0.249,3.982,4.844,63.0,12.18,20.38
-0.06,0.186,3.98,4.841,63.0,12.18,20.55
-0.041,0.145,3.979,4.84,63.0,12.18,20.79
0.01,0.207,3.978,4.838,63.0,12.18,21.06
-0.064,0.249,3.976,4.835,63.0,12.18,21.32
0.302,0.331,3.975,4.834,63.0,12.18,21.55
-0.069,0.29,3.973,4.833,63.0,12.18,21.79
0.045,0.166,3.973,4.83,63.0,12.18,22.04
0.154,0.207,3.97,4.828,63.0,12.18,22.28
0.302,0.228,3.97,4.826,63.0,12.18,22.51
0.101,0.145,3.968,4.825,63.0,12.18,22.71
-0.032,0.186,3.968,4.824,70.0,12.18,22.89
-0.031,0.186,3.965,4.821,70.0,12.18,23.01
-0.036,0.228,3.964,4.82,70.0,12.18,23.07
-0.04,0.311,3.963,4.818,70.0,12.18,23.17
-0.036,0.207,3.96,4.815,70.0,12.18,23.27
0.025,0.186,3.959,4.814,70.0,12.18,23.36
-0.054,0.249,3.958,4.813,70.0,12.18,23.43
0.176,0.414,3.956,4.81,70.0,12.18,23.45
0.048,0.456,3.955,4.808,70.0,12.18,23.47
0.014,0.228,3.953,4.808,70.0,12.18,23.46
0.106,0.207,3.953,4.805,70.0,12.18,23.41
0.253,0.166,3.95,4.803,70.0,12.18,23.36
0.101,0.249,3.95,4.801,70.0,12.18,23.23
-0.087,0.124,3.948,4.8,70.0,12.18,23.04
-0.093,0.166,3.946,4.798,70.0,12.18,22.8
-0.11,0.166,3.945,4.796,70.0,12.18,22.38
-0.126,0.228,3.943,4.795,70.0,12.18,21.94
-0.137,0.228,3.943,4.791,70.0,12.18,21.54
-0.121,0.228,3.941,4.79,70.0,12.18,21.15
-0.088,0.186,3.94,4.789,70.0,12.18,20.78
-0.166,0.228,3.938,4.788,70.0,12.18,20.42
0.215,0.373,3.938,4.785,70.0,12.18,20.05
-0.21,0.331,3.935,4.783,70.0,12.18,19.73
-0.076,0.186,3.935,4.781,70.0,12.18,19.47
0.034,0.207,3.933,4.78,67.0,12.18,19.25
0.175,0.186,3.931,4.778,67.0,12.18,19.07
-0.05,0.228,3.93,4.776,67.0,12.18,18.91
-0.163,0.228,3.929,4.775,67.0,12.18,18.77
-0.156,0.186,3.928,4.773,67.0,12.18,18.61
-0.164,0.249,3.925,4.772,67.0,12.18,18.48
-0.167,0.228,3.925,4.769,67.0,12.18,18.41
-0.165,0.228,3.923,4.768,67.0,12.18,18.36
-0.147,0.249,3.923,4.766,67.0,12.18,18.33
-0.097,0.207,3.92,4.764,67.0,12.18,18.32
-0.171,0.186,3.92,4.763,67.0,12.18,18.3
0.191,0.311,3.918,4.761,67.0,12.18,18.29
-0.199,0.352,3.916,4.759,67.0,12.18,18.28
-0.07,0.207,3.915,4.758,67.0,12.18,18.29
0.04,0.186,3.914,4.756,65.0,12.18,18.3
0.196,0.228,3.913,4.754,65.0,12.18,18.32
0.01,0.145,3.911,4.753,65.0,12.18,18.34
-0.129,0.186,3.91,4.751,65.0,12.18,18.35
-0.118,0.352,3.909,4.751,65.0,12.18,18.34
-0.122,0.249,3.908,4.747,65.0,12.18,18.29
-0.126,0.186,3.906,4.746,65.0,12.18,18.25
-0.124,0.207,3.905,4.743,65.0,12.18,18.25
-0.121,0.311,3.903,4.742,65.0,12.18,18.25
-0.063,0.228,3.903,4.741,65.0,12.18,18.27
-0.093,0.166,3.9,4.738,65.0,12.18,18.26
-0.137,0.145,3.9,4.737,65.0,12.18,18.28
0.171,0.435,3.898,4.736,65.0,12.18,18.29
-0.069,0.186,3.898,4.733,65.0,12.18,18.3
0.004,0.166,3.895,4.733,65.0,12.18,18.31
0.147,0.228,3.895,4.731,65.0,12.18,18.33
0.212,0.145,3.893,4.728,65.0,12.18,18.35
-0.056,0.249,3.892,4.727,65.0,12.18,18.36
-0.086,0.207,3.891,4.726,64.0,12.18,18.42
-0.078,0.186,3.891,4.723,64.0,12.18,18.46
-0.08,0.311,3.888,4.722,64.0,12.18,18.5
-0.073,0.145,3.888,4.721,64.0,12.18,18.61
-0.065,0.207,3.886,4.718,64.0,12.18,18.81
0.004,0.166,3.884,4.717,64.0,12.18,19.08
-0.05,0.207,3.883,4.716,64.0,12.18,19.34
-0.044,0.249,3.882,4.713,64.0,12.18,19.58
0.232,0.477,3.881,4.712,64.0,12.18,19.84
0.016,0.166,3.878,4.711,64.0,12.18,20.11
0.103,0.228,3.878,4.708,64.0,12.18,20.41
0.256,0.228,3.876,4.706,64.0,12.18,20.71
0.242,0.228,3.876,4.706,64.0,12.18,21.01
0.0,0.269,3.873,4.703,64.0,12.18,21.32
-0.009,0.186,3.873,4.702,64.0,12.18,21.6
-0.01,0.249,3.871,4.701,64.0,12.18,21.78
-0.017,0.186,3.871,4.698,64.0,12.18,21.96
-0.016,0.249,3.868,4.697,64.0,12.18,22.22
0.031,0.166,3.868,4.696,64.0,12.18,22.43
0.006,0.145,3.866,4.694,64.0,12.18,22.61
-0.039,0.166,3.866,4.693,67.0,12.18,22.69
0.301,0.456,3.864,4.691,67.0,12.18,22.71
0.015,0.207,3.863,4.689,67.0,12.18,22.68
0.094,0.166,3.861,4.688,67.0,12.18,22.63
0.225,0.269,3.861,4.687,67.0,12.18,22.54
0.283,0.207,3.858,4.686,67.0,12.18,22.42
0.009,0.269,3.858,4.684,67.0,12.18,22.27
-0.033,0.207,3.857,4.682,67.0,12.18,22.07
-0.036,0.186,3.856,4.681,67.0,12.18,21.72
-0.058,0.124,3.854,4.68,67.0,12.18,21.26
-0.07,0.186,3.853,4.679,67.0,12.18,20.87
-0.068,0.166,3.851,4.676,67.0,12.18,20.52
-0.019,0.228,3.849,4.675,67.0,12.18,20.21
-0.106,0.186,3.848,4.674,67.0,12.18,19.93
0.147,0.29,3.848,4.671,67.0,12.18,19.65
-0.056,0.352,3.846,4.67,67.0,12.18,19.39
-0.044,0.186,3.846,4.669,67.0,12.18,19.18
0.05,0.249,3.844,4.667,67.0,12.18,19.0
0.205,0.207,3.843,4.665,67.0,12.18,18.86
-0.039,0.249,3.842,4.664,67.0,12.18,18.73
-0.116,0.166,3.841,4.662,67.0,12.18,18.64
-0.109,0.228,3.839,4.661,67.0,12.18,18.57
-0.113,0.186,3.838,4.66,67.0,12.18,18.47
-0.118,0.186,3.837,4.659,67.0,12.18,18.4
-0.117,0.207,3.834,4.654,67.0,12.18,18.33
-0.113,0.249,3.834,4.655,67.0,12.18,18.33
-0.081,0.186,3.833,4.654,67.0,12.18,18.33
-0.056,0.145,3.833,4.651,67.0,12.2,18.3
-0.121,0.207,3.831,4.65,67.0,12.18,18.3
0.229,0.373,3.831,4.649,67.0,12.18,18.3
-0.124,0.269,3.828,4.646,67.0,12.18,18.3
-0.006,0.166,3.828,4.645,67.0,12.18,18.32
0.114,0.166,3.826,4.644,67.0,12.18,18.33
0.247,0.166,3.826,4.642,67.0,12.18,18.35
0.004,0.166,3.823,4.641,67.0,12.18,18.36
-0.086,0.228,3.823,4.639,63.0,12.18,18.37
-0.08,0.186,3.822,4.639,63.0,12.18,18.34
-0.09,0.166,3.821,4.636,63.0,12.18,18.29
-0.094,0.186,3.819,4.635,63.0,12.2,18.25
-0.095,0.186,3.818,4.634,63.0,12.18,18.25
-0.093,0.228,3.816,4.631,63.0,12.18,18.27
-0.033,0.186,3.816,4.63,63.0,12.2,18.28
-0.079,0.186,3.816,4.629,63.0,12.18,18.28
-0.105,0.228,3.813,4.626,63.0,12.2,18.29
0.192,0.414,3.813,4.626,63.0,12.18,18.29
-0.04,0.207,3.811,4.624,63.0,12.18,18.3
0.034,0.249,3.811,4.622,63.0,12.18,18.33
0.178,0.166,3.808,4.621,63.0,12.18,18.34
0.22,0.207,3.807,4.62,63.0,12.18,18.36
-0.045,0.186,3.806,4.619,63.0,12.18,18.38
-0.066,0.228,3.806,4.616,63.0,12.2,18.39
-0.06,0.166,3.803,4.615,63.0,12.18,18.39
-0.064,0.186,3.803,4.614,63.0,12.18,18.41
-0.06,0.207,3.801,4.611,63.0,12.18,18.5
-0.055,0.145,3.801,4.61,63.0,12.18,18.63
0.005,0.29,3.799,4.609,63.0,12.2,18.85
-0.024,0.186,3.799,4.607,63.0,12.18,19.08
-0.058,0.249,3.796,4.605,63.0,12.18,19.31
0.268,0.331,3.796,4.604,63.0,12.18,19.56
0.021,0.228,3.794,4.604,63.0,12.18,19.82
0.099,0.186,3.794,4.601,63.0,12.18,20.09
0.243,0.228,3.791,4.6,63.0,12.18,20.35
0.3,0.29,3.791,4.598,63.0,12.18,20.65
0.035,0.249,3.789,4.597,63.0,12.18,20.93
0.008,0.228,3.789,4.594,63.0,12.18,21.21
0.009,0.186,3.787,4.594,63.0,12.18,21.4
0.0,0.207,3.786,4.592,63.0,12.18,21.57
-0.004,0.269,3.785,4.59,63.0,12.18,21.83
0.051,0.145,3.784,4.589,63.0,12.18,22.08
0.001,0.228,3.782,4.587,63.0,12.18,22.32
-0.035,0.186,3.781,4.587,66.0,12.2,22.45
0.309,0.456,3.781,4.585,66.0,12.18,22.55
0.027,0.207,3.779,4.583,66.0,12.18,22.63
0.102,0.249,3.779,4.582,66.0,12.18,22.66
0.241,0.207,3.776,4.579,66.0,12.2,22.64
0.269,0.166,3.776,4.578,66.0,12.18,22.59
-0.004,0.166,3.774,4.577,66.0,12.18,22.48
-0.031,0.145,3.774,4.575,66.0,12.2,22.41
-0.035,0.207,3.772,4.574,66.0,12.18,22.17
-0.045,0.228,3.771,4.572,66.0,12.18,21.94
-0.052,0.207,3.771,4.572,66.0,12.18,21.85
-0.041,0.166,3.769,4.57,66.0,12.2,21.73
-0.004,0.166,3.767,4.569,66.0,12.2,21.61
-0.081,0.166,3.766,4.567,66.0,12.18,21.44
0.299,0.373,3.766,4.565,66.0,12.18,21.24
-0.128,0.311,3.764,4.564,66.0,12.18,21.02
-0.003,0.249,3.764,4.562,66.0,12.18,20.83
0.099,0.207,3.761,4.562,66.0,12.18,20.62
0.241,0.249,3.761,4.559,66.0,12.18,20.43
0.03,0.145,3.759,4.558,66.0,12.18,20.2
-0.098,0.207,3.759,4.557,66.0,12.18,20.0
-0.095,0.186,3.759,4.554,66.0,12.18,19.74
-0.105,0.207,3.756,4.554,66.0,12.18,19.42
-0.112,0.166,3.756,4.552,66.0,12.18,19.15
-0.116,0.166,3.755,4.55,66.0,12.18,18.98
-0.116,0.166,3.754,4.549,66.0,12.18,18.82
-0.1,0.207,3.754,4.548,66.0,12.18,18.7
-0.058,0.207,3.751,4.545,66.0,12.18,18.59
-0.129,0.207,3.751,4.544,66.0,12.18,18.53
0.229,0.29,3.749,4.543,66.0,12.18,18.47
-0.158,0.352,3.749,4.542,66.0,12.18,18.45
-0.037,0.186,3.749,4.539,66.0,12.18,18.42
0.068,0.145,3.746,4.539,61.0,12.18,18.4
0.225,0.166,3.746,4.538,61.0,12.18,18.4
0.055,0.207,3.745,4.537,61.0,12.18,18.39
-0.1,0.249,3.744,4.534,61.0,12.18,18.39
-0.092,0.166,3.742,4.533,61.0,12.18,18.35
-0.094,0.186,3.741,4.532,61.0,12.18,18.3
-0.098,0.186,3.741,4.529,61.0,12.18,18.27
-0.098,0.186,3.739,4.527,61.0,12.18,18.25
-0.094,0.186,3.739,4.527,61.0,12.18,18.25
-0.092,0.166,3.737,4.525,61.0,12.18,18.26
-0.031,0.166,3.736,4.524,61.0,12.18,18.25
-0.085,0.207,3.735,4.523,61.0,12.2,18.26
-0.085,0.269,3.734,4.522,61.0,12.18,18.28
0.191,0.497,3.734,4.52,61.0,12.2,18.28
-0.03,0.186,3.731,4.519,61.0,12.18,18.3
0.047,0.166,3.731,4.518,61.0,12.2,18.31
0.193,0.269,3.729,4.517,61.0,12.18,18.33
0.209,0.166,3.729,4.514,61.0,12.2,18.35
-0.056,0.249,3.727,4.514,61.0,12.18,18.35
-0.074,0.186,3.726,4.512,60.0,12.18,18.36
-0.072,0.166,3.726,4.512,60.0,12.18,18.31
-0.082,0.145,3.725,4.509,60.0,12.2,18.25
-0.081,0.207,3.724,4.509,60.0,12.18,18.24
-0.077,0.186,3.724,4.507,60.0,12.18,18.24
-0.075,0.186,3.721,4.506,60.0,12.2,18.25
-0.041,0.186,3.721,4.505,60.0,12.18,18.26
-0.028,0.166,3.719,4.503,60.0,12.18,18.32
-0.076,0.228,3.719,4.501,60.0,12.18,18.39
0.269,0.394,3.717,4.5,60.0,12.18,18.49
-0.06,0.249,3.716,4.498,60.0,12.18,18.6
0.044,0.186,3.716,4.497,60.0,12.18,18.75
0.17,0.186,3.714,4.496,60.0,12.18,18.93
0.309,0.186,3.714,4.495,60.0,12.18,19.14
0.059,0.186,3.713,4.492,60.0,12.18,19.35
-0.026,0.29,3.712,4.492,60.0,12.18,19.56
-0.015,0.207,3.71,4.49,60.0,12.18,19.7
-0.02,0.269,3.709,4.49,60.0,12.18,19.8
-0.018,0.207,3.708,4.487,60.0,12.18,19.97
-0.015,0.186,3.707,4.486,60.0,12.18,20.19
0.003,0.207,3.705,4.485,60.0,12.18,20.45
0.049,0.228,3.704,4.483,60.0,12.18,20.71
-0.016,0.166,3.703,4.482,60.0,12.18,20.94
0.349,0.311,3.702,4.481,60.0,12.18,21.2
-0.028,0.249,3.702,4.48,60.0,12.18,21.47
0.085,0.166,3.7,4.477,60.0,12.18,21.7
0.187,0.207,3.699,4.476,60.0,12.18,21.9
0.341,0.186,3.699,4.475,60.0,12.18,22.11
0.154,0.207,3.698,4.473,60.0,12.18,22.32
0.005,0.166,3.697,4.472,65.0,12.18,22.49
0.004,0.166,3.695,4.471,65.0,12.18,22.55
-0.008,0.166,3.694,4.47,65.0,12.18,22.52
-0.016,0.186,3.694,4.468,65.0,12.18,22.52
-0.024,0.207,3.693,4.467,65.0,12.18,22.51
-0.008,0.228,3.692,4.466,65.0,12.18,22.44
0.018,0.207,3.69,4.465,65.0,12.18,22.35
-0.054,0.186,3.689,4.462,65.0,12.18,22.21
0.334,0.29,3.688,4.461,65.0,12.18,22.09
-0.087,0.269,3.687,4.46,65.0,12.18,21.99
0.038,0.166,3.687,4.458,65.0,12.2,21.89
0.145,0.228,3.684,4.457,65.0,12.18,21.76
0.289,0.207,3.684,4.455,65.0,12.18,21.64
0.057,0.166,3.684,4.455,65.0,12.18,21.45
-0.064,0.228,3.682,4.452,67.0,12.2,21.24
-0.065,0.228,3.682,4.452,67.0,12.18,20.94
-0.079,0.207,3.679,4.45,67.0,12.18,20.56
-0.089,0.186,3.679,4.45,67.0,12.18,20.25
-0.095,0.207,3.678,4.447,67.0,12.18,19.98
-0.098,0.166,3.677,4.446,67.0,12.18,19.76
-0.084,0.186,3.675,4.445,67.0,12.18,19.57
-0.059,0.29,3.674,4.442,67.0,12.18,19.36
-0.128,0.186,3.674,4.442,67.0,12.18,19.17
0.252,0.373,3.673,4.44,67.0,12.18,18.99
-0.173,0.269,3.672,4.438,67.0,12.2,18.86
-0.043,0.249,3.672,4.437,67.0,12.18,18.75
0.059,0.207,3.669,4.436,62.0,12.18,18.65
0.217,0.186,3.669,4.435,62.0,12.18,18.6
0.027,0.207,3.668,4.433,62.0,12.18,18.55
-0.125,0.207,3.667,4.432,62.0,12.18,18.51
-0.119,0.249,3.667,4.43,62.0,12.2,18.44
-0.125,0.207,3.665,4.43,62.0,12.2,18.35
-0.132,0.249,3.664,4.428,62.0,12.18,18.3
-0.132,0.228,3.664,4.426,62.0,12.18,18.29
-0.131,0.166,3.662,4.425,62.0,12.2,18.28
-0.129,0.228,3.662,4.425,62.0,12.2,18.28
-0.101,0.228,3.66,4.422,62.0,12.18,18.26
-0.084,0.186,3.659,4.422,62.0,12.2,18.28
-0.14,0.186,3.659,4.42,62.0,12.2,18.28
0.222,0.373,3.657,4.419,62.0,12.18,18.29
-0.16,0.331,3.657,4.418,62.0,12.18,18.3
-0.035,0.186,3.654,4.416,62.0,12.18,18.32
0.077,0.186,3.654,4.415,58.0,12.2,18.33
0.227,0.145,3.654,4.414,58.0,12.18,18.35
0.005,0.207,3.652,4.413,58.0,12.18,18.36
-0.117,0.228,3.652,4.41,58.0,12.2,18.37
-0.11,0.166,3.649,4.41,58.0,12.18,18.34
-0.114,0.186,3.649,4.409,58.0,12.18,18.27
-0.117,0.269,3.649,4.408,58.0,12.18,18.25
-0.116,0.145,3.647,4.405,58.0,12.2,18.29
-0.115,0.207,3.647,4.405,58.0,12.18,18.37
-0.112,0.228,3.645,4.403,58.0,12.18,18.46
-0.055,0.166,3.644,4.403,58.0,12.18,18.54
-0.097,0.186,3.643,4.4,58.0,12.2,18.63
-0.1,0.186,3.642,4.4,58.0,12.18,18.78
0.195,0.394,3.642,4.399,58.0,12.2,19.0
-0.035,0.166,3.64,4.398,58.0,12.18,19.23
0.045,0.269,3.639,4.398,58.0,12.18,19.46
0.197,0.186,3.638,4.395,58.0,12.18,19.71
0.239,0.269,3.637,4.394,58.0,12.18,19.98
-0.034,0.249,3.637,4.393,58.0,12.2,20.23
-0.057,0.228,3.634,4.39,60.0,12.18,20.49
-0.05,0.249,3.634,4.39,60.0,12.18,20.64
-0.053,0.166,3.633,4.39,60.0,12.18,20.8
-0.052,0.228,3.632,4.388,60.0,12.18,21.08
-0.052,0.145,3.632,4.388,60.0,12.18,21.39
-0.041,0.249,3.629,4.385,60.0,12.18,21.74
0.009,0.331,3.629,4.384,60.0,12.2,22.05
0.265,0.394,3.628,4.383,60.0,12.2,22.31
0.328,0.394,3.627,4.383,60.0,12.18,22.59
-0.014,0.352,3.627,4.381,60.0,12.2,22.82
0.04,0.249,3.626,4.38,68.0,12.18,23.03
0.138,0.186,3.625,4.379,68.0,12.18,23.21
0.299,0.207,3.622,4.375,68.0,12.18,23.49
0.153,0.186,3.622,4.375,68.0,12.18,23.51
-0.033,0.186,3.622,4.375,68.0,12.18,23.59
-0.031,0.207,3.622,4.374,68.0,12.18,23.6
-0.04,0.207,3.62,4.373,68.0,12.2,23.52
-0.048,0.207,3.62,4.371,68.0,12.2,23.52
-0.053,0.124,3.62,4.37,68.0,12.18,23.54
-0.053,0.207,3.617,4.368,68.0,12.2,23.57
0.003,0.207,3.617,4.368,68.0,12.18,23.57
-0.051,0.186,3.615,4.366,68.0,12.18,23.55
-0.019,0.207,3.615,4.365,68.0,12.2,23.55
0.228,0.373,3.615,4.364,68.0,12.18,23.56
-0.001,0.145,3.612,4.363,68.0,12.18,23.52
0.076,0.186,3.612,4.363,68.0,12.2,23.46
0.229,0.207,3.611,4.36,68.0,12.18,23.4
0.207,0.228,3.61,4.36,68.0,12.2,23.31
-0.061,0.186,3.61,4.359,60.0,12.2,23.15
-0.077,0.166,3.61,4.358,60.0,12.18,22.96
-0.083,0.207,3.607,4.355,60.0,12.2,22.65
-0.099,0.166,3.607,4.355,60.0,12.18,22.37
-0.11,0.186,3.605,4.354,60.0,12.18,22.13
-0.117,0.207,3.605,4.353,60.0,12.18,21.86
-0.088,0.166,3.603,4.351,60.0,12.2,21.59
-0.103,0.166,3.602,4.35,60.0,12.18,21.29
-0.157,0.145,3.602,4.35,60.0,12.18,20.97
0.188,0.394,3.6,4.348,60.0,12.18,20.67
-0.139,0.207,3.6,4.348,60.0,12.18,20.41
-0.056,0.228,3.597,4.345,60.0,12.18,20.18
0.065,0.228,3.597,4.345,64.0,12.2,19.97
0.185,0.186,3.597,4.343,64.0,12.18,19.78
-0.087,0.186,3.595,4.343,64.0,12.18,19.56
-0.161,0.124,3.595,4.34,64.0,12.18,19.37
-0.152,0.249,3.593,4.339,64.0,12.18,19.11
-0.159,0.186,3.592,4.338,64.0,12.2,18.8
-0.161,0.145,3.592,4.336,64.0,12.2,18.61
-0.159,0.186,3.592,4.335,64.0,12.2,18.53
-0.154,0.166,3.59,4.334,64.0,12.2,18.47
-0.108,0.249,3.59,4.333,64.0,12.2,18.42
-0.113,0.145,3.59,4.333,64.0,12.18,18.37
-0.157,0.186,3.587,4.331,64.0,12.2,18.34
0.162,0.394,3.587,4.331,64.0,12.2,18.33
-0.1,0.207,3.586,4.329,64.0,12.18,18.33
-0.025,0.228,3.585,4.328,64.0,12.2,18.33
0.107,0.145,3.585,4.328,62.0,12.2,18.33
0.225,0.207,3.583,4.326,62.0,12.18,18.35
-0.049,0.145,3.582,4.324,62.0,12.2,18.35
-0.116,0.145,3.582,4.323,62.0,12.18,18.36
-0.107,0.104,3.581,4.322,62.0,12.2,18.32
-0.113,0.145,3.58,4.321,62.0,12.18,18.27
-0.114,0.145,3.58,4.321,62.0,12.18,18.25
-0.111,0.207,3.578,4.318,62.0,12.18,18.25
-0.11,0.145,3.577,4.317,62.0,12.18,18.26
-0.051,0.186,3.577,4.316,62.0,12.18,18.28
-0.092,0.207,3.575,4.316,62.0,12.18,18.28
-0.115,0.249,3.575,4.313,62.0,12.18,18.28
0.194,0.394,3.573,4.313,62.0,12.2,18.3
-0.05,0.228,3.572,4.311,62.0,12.18,18.36
0.024,0.166,3.572,4.311,62.0,12.18,18.47
0.171,0.186,3.57,4.308,62.0,12.18,18.59
0.237,0.186,3.57,4.308,62.0,12.18,18.74
-0.043,0.29,3.568,4.307,62.0,12.2,18.93
-0.065,0.207,3.567,4.306,63.0,12.18,19.13
-0.049,0.166,3.567,4.306,63.0,12.18,19.24
-0.048,0.124,3.567,4.303,63.0,12.18,19.32
-0.039,0.186,3.565,4.302,63.0,12.18,19.49
-0.02,0.207,3.565,4.301,63.0,12.18,19.7
0.044,0.228,3.562,4.299,63.0,12.18,19.96
-0.022,0.207,3.562,4.298,63.0,12.2,20.19
0.276,0.29,3.561,4.297,63.0,12.18,20.41
0.031,0.311,3.56,4.296,63.0,12.18,20.66
0.083,0.186,3.56,4.296,63.0,12.18,20.92
0.188,0.186,3.557,4.294,63.0,12.18,21.19
0.353,0.207,3.557,4.293,63.0,12.18,21.47
0.219,0.186,3.556,4.292,63.0,12.18,21.76
0.035,0.207,3.555,4.291,63.0,12.18,22.03
0.039,0.207,3.555,4.289,63.0,12.2,22.25
0.032,0.166,3.555,4.288,63.0,12.2,22.36
0.031,0.145,3.552,4.287,63.0,12.18,22.51
0.038,0.145,3.552,4.286,63.0,12.2,22.73
0.1,0.145,3.552,4.286,63.0,12.18,22.98
0.027,0.228,3.551,4.283,63.0,12.18,23.18
0.17,0.269,3.55,4.283,63.0,12.18,23.33
0.221,0.373,3.55,4.282,68.0,12.18,23.45
0.093,0.145,3.547,4.281,68.0,12.18,23.54
0.183,0.249,3.547,4.281,68.0,12.18,23.6
0.34,0.269,3.547,4.278,68.0,12.18,23.65
0.256,0.249,3.545,4.278,68.0,12.2,23.66
0.032,0.166,3.545,4.276,68.0,12.18,23.62
0.028,0.186,3.543,4.276,68.0,12.18,23.53
0.021,0.186,3.542,4.274,68.0,12.2,23.4
0.01,0.228,3.542,4.273,68.0,12.18,23.39
0.003,0.186,3.541,4.272,54.0,12.18,23.43
0.024,0.228,3.54,4.271,54.0,12.18,23.44
0.044,0.186,3.54,4.269,54.0,12.2,23.41
-0.026,0.207,3.54,4.268,54.0,12.18,23.31
0.374,0.435,3.538,4.268,54.0,12.18,23.26
-0.057,0.207,3.538,4.266,54.0,12.18,23.19
0.063,0.207,3.536,4.266,54.0,12.2,23.07
0.169,0.145,3.535,4.263,54.0,12.2,22.92
0.307,0.186,3.535,4.263,54.0,12.18,22.74
0.069,0.186,3.533,4.262,54.0,12.2,22.48
-0.053,0.207,3.533,4.261,54.0,12.2,22.19
-0.054,0.249,3.531,4.259,54.0,12.18,21.79
-0.072,0.186,3.53,4.258,54.0,12.18,21.35
-0.085,0.145,3.53,4.258,54.0,12.18,21.07
-0.095,0.207,3.529,4.256,54.0,12.18,20.85
-0.103,0.228,3.528,4.256,54.0,12.2,20.65
-0.088,0.207,3.528,4.253,54.0,12.18,20.49
-0.068,0.186,3.528,4.253,54.0,12.18,20.27
-0.146,0.228,3.525,4.251,54.0,12.2,20.06
0.239,0.352,3.525,4.251,54.0,12.2,19.88
-0.142,0.373,3.525,4.248,54.0,12.18,19.71
-0.053,0.207,3.523,4.248,54.0,12.18,19.58
0.029,0.207,3.523,4.247,62.0,12.18,19.44
0.175,0.124,3.523,4.246,62.0,12.18,19.33
-0.025,0.145,3.521,4.245,62.0,12.18,19.2
-0.169,0.228,3.518,4.242,62.0,12.2,18.91
-0.161,0.207,3.519,4.242,62.0,12.18,18.88
-0.168,0.145,3.518,4.244,62.0,12.18,18.66
-0.174,0.166,3.518,4.241,62.0,12.2,18.54
-0.174,0.124,3.518,4.24,62.0,12.2,18.48
-0.17,0.207,3.516,4.239,62.0,12.18,18.44
-0.167,0.186,3.515,4.237,62.0,12.18,18.4
-0.117,0.331,3.514,4.236,62.0,12.18,18.36
-0.138,0.269,3.513,4.235,62.0,12.18,18.33
-0.171,0.228,3.513,4.234,62.0,12.18,18.33
0.148,0.518,3.513,4.234,62.0,12.18,18.33
-0.115,0.166,3.51,4.232,62.0,12.18,18.33
-0.041,0.186,3.51,4.231,62.0,12.2,18.33
0.089,0.207,3.509,4.23,59.0,12.18,18.33
0.203,0.207,3.508,4.229,59.0,12.2,18.35
-0.065,0.29,3.508,4.227,59.0,12.2,18.35
-0.13,0.145,3.508,4.226,59.0,12.18,18.36
-0.132,0.228,3.505,4.226,59.0,12.18,18.32
-0.133,0.249,3.505,4.224,59.0,12.2,18.26
-0.133,0.228,3.505,4.224,59.0,12.18,18.25
-0.132,0.186,3.503,4.221,59.0,12.2,18.25
-0.128,0.228,3.503,4.221,59.0,12.2,18.25
-0.105,0.207,3.503,4.219,59.0,12.18,18.26
-0.07,0.166,3.501,4.22,59.0,12.2,18.26
-0.13,0.145,3.5,4.219,59.0,12.18,18.28
0.248,0.29,3.5,4.216,59.0,12.18,18.28
-0.163,0.414,3.5,4.216,59.0,12.18,18.3
-0.026,0.249,3.498,4.216,59.0,12.18,18.32
0.08,0.166,3.498,4.214,59.0,12.18,18.37
0.249,0.228,3.495,4.214,59.0,12.18,18.47
0.075,0.207,3.495,4.212,59.0,12.18,18.57
-0.084,0.186,3.495,4.211,60.0,12.2,18.68
-0.072,0.186,3.495,4.21,60.0,12.2,18.79
-0.068,0.186,3.495,4.209,60.0,12.18,18.83
-0.061,0.145,3.494,4.209,60.0,12.18,18.95
-0.053,0.207,3.493,4.206,60.0,12.18,19.16
-0.045,0.249,3.493,4.206,60.0,12.18,19.41
0.0,0.145,3.49,4.204,60.0,12.18,19.68
0.004,0.186,3.49,4.204,60.0,12.18,19.92
-0.033,0.186,3.49,4.204,60.0,12.18,20.2
0.32,0.331,3.488,4.201,60.0,12.18,20.48
0.013,0.29,3.488,4.201,60.0,12.18,20.8
0.11,0.166,3.488,4.2,60.0,12.2,21.11
0.24,0.186,3.485,4.199,60.0,12.2,21.43
0.36,0.228,3.485,4.199,60.0,12.2,21.76
0.1,0.249,3.485,4.196,60.0,12.2,22.09
0.029,0.186,3.483,4.196,60.0,12.18,22.39
0.03,0.145,3.483,4.194,60.0,12.18,22.57
0.023,0.228,3.483,4.194,60.0,12.2,22.7
0.02,0.186,3.481,4.192,60.0,12.2,22.89
0.02,0.207,3.48,4.191,60.0,12.18,23.1
0.029,0.186,3.48,4.191,60.0,12.18,23.29
0.076,0.166,3.478,4.189,60.0,12.18,23.4
0.0,0.145,3.478,4.187,60.0,12.2,23.48
0.317,0.249,3.475,4.186,63.0,12.18,23.56
0.036,0.311,3.475,4.186,63.0,12.2,23.6
0.082,0.166,3.475,4.186,63.0,12.18,23.6
0.177,0.124,3.475,4.184,63.0,12.2,23.57
0.334,0.145,3.474,4.184,63.0,12.18,23.56
0.193,0.124,3.473,4.182,63.0,12.2,23.51
0.0,0.228,3.473,4.181,63.0,12.18,23.45
-0.004,0.186,3.471,4.181,63.0,12.18,23.31
-0.018,0.186,3.47,4.179,63.0,12.2,23.04
-0.029,0.207,3.47,4.179,63.0,12.18,22.91
-0.039,0.186,3.469,4.177,63.0,12.18,22.82
-0.024,0.207,3.468,4.176,63.0,12.18,22.69
0.0,0.269,3.468,4.176,63.0,12.18,22.52
-0.077,0.269,3.465,4.174,63.0,12.18,22.29
0.317,0.29,3.465,4.174,63.0,12.2,22.04
-0.12,0.311,3.465,4.172,63.0,12.2,21.78
0.006,0.166,3.464,4.171,63.0,12.18,21.56
0.113,0.228,3.463,4.171,63.0,12.18,21.37
0.264,0.228,3.463,4.169,63.0,12.2,21.21
0.044,0.166,3.46,4.169,63.0,12.2,21.01
-0.089,0.207,3.46,4.167,63.0,12.18,20.82
-0.087,0.166,3.46,4.166,63.0,12.18,20.59
-0.098,0.207,3.458,4.166,63.0,12.18,20.3
-0.106,0.166,3.458,4.164,63.0,12.18,20.05
-0.111,0.166,3.458,4.164,63.0,12.18,19.85
-0.112,0.166,3.456,4.162,63.0,12.18,19.69
-0.111,0.166,3.455,4.161,63.0,12.18,19.56
-0.053,0.228,3.455,4.161,63.0,12.18,19.4
-0.115,0.29,3.454,4.16,63.0,12.2,19.25
-0.079,0.186,3.453,4.159,63.0,12.18,19.14
0.153,0.435,3.453,4.157,63.0,12.2,19.04
-0.062,0.166,3.453,4.156,63.0,12.2,18.94
0.014,0.166,3.451,4.156,63.0,12.2,18.86
0.164,0.124,3.45,4.155,60.0,12.2,18.79
0.175,0.166,3.45,4.154,60.0,12.18,18.73
-0.096,0.228,3.45,4.154,60.0,12.18,18.66
-0.113,0.207,3.448,4.152,60.0,12.2,18.61
-0.113,0.166,3.448,4.152,60.0,12.18,18.5
-0.124,0.186,3.448,4.15,60.0,12.2,18.43
-0.124,0.228,3.446,4.149,60.0,12.18,18.38
-0.123,0.207,3.446,4.148,60.0,12.18,18.36
-0.121,0.145,3.446,4.147,60.0,12.18,18.35
-0.117,0.145,3.444,4.147,60.0,12.18,18.33
-0.056,0.352,3.443,4.147,60.0,12.18,18.32
-0.117,0.269,3.443,4.144,60.0,12.18,18.31
-0.065,0.29,3.443,4.144,60.0,12.2,18.31
0.127,0.249,3.441,4.143,60.0,12.18,18.33
-0.058,0.186,3.441,4.142,60.0,12.18,18.33
0.021,0.145,3.441,4.142,60.0,12.18,18.34
0.172,0.207,3.438,4.139,58.0,12.2,18.35
0.18,0.186,3.438,4.139,58.0,12.18,18.37
-0.09,0.166,3.438,4.138,58.0,12.2,18.37
-0.106,0.186,3.437,4.137,58.0,12.2,18.37
-0.102,0.166,3.436,4.137,58.0,12.2,18.32
-0.111,0.186,3.436,4.134,58.0,12.18,18.27
-0.107,0.166,3.436,4.134,58.0,12.18,18.29
-0.105,0.207,3.434,4.133,58.0,12.2,18.36
-0.101,0.145,3.433,4.132,58.0,12.18,18.48
-0.095,0.145,3.433,4.132,58.0,12.18,18.58
-0.034,0.186,3.432,4.129,58.0,12.18,18.73
-0.09,0.207,3.431,4.129,58.0,12.18,18.94
0.0,0.29,3.431,4.129,58.0,12.18,19.18
0.135,0.373,3.428,4.128,58.0,12.18,19.4
-0.019,0.269,3.428,4.127,58.0,12.18,19.64
0.064,0.228,3.428,4.127,58.0,12.18,19.89
0.218,0.207,3.426,4.124,58.0,12.18,20.14
0.21,0.207,3.426,4.124,58.0,12.2,20.4
-0.045,0.145,3.426,4.123,58.0,12.18,20.65
-0.056,0.145,3.424,4.122,58.0,12.2,20.89
-0.053,0.207,3.423,4.122,58.0,12.2,21.02
-0.06,0.186,3.423,4.12,58.0,12.18,21.18
-0.062,0.249,3.423,4.119,58.0,12.18,21.44
-0.059,0.207,3.421,4.118,58.0,12.2,21.74
-0.02,0.166,3.421,4.117,58.0,12.2,22.07
-0.025,0.186,3.421,4.117,58.0,12.18,22.33
-0.065,0.166,3.418,4.114,58.0,12.2,22.58
0.291,0.352,3.418,4.114,58.0,12.2,22.84
-0.005,0.186,3.418,4.114,58.0,12.18,23.07
0.077,0.186,3.418,4.113,58.0,12.18,23.29
0.213,0.249,3.417,4.112,58.0,12.18,23.46
0.32,0.166,3.416,4.109,58.0,12.18,23.61
0.037,0.124,3.416,4.109,58.0,12.18,23.75
-0.033,0.186,3.414,4.109,64.0,12.2,23.83
-0.035,0.207,3.413,4.107,64.0,12.2,23.78
-0.043,0.207,3.413,4.107,64.0,12.18,23.68
-0.047,0.207,3.412,4.107,64.0,12.2,23.66
-0.039,0.145,3.411,4.104,64.0,12.18,23.64
0.006,0.145,3.411,4.102,64.0,12.18,23.58
-0.072,0.166,3.411,4.103,64.0,12.2,23.57
0.29,0.331,3.408,4.102,64.0,12.2,23.51
-0.076,0.373,3.408,4.102,64.0,12.18,23.46
0.005,0.145,3.408,4.099,64.0,12.2,23.4
0.098,0.186,3.407,4.099,64.0,12.18,23.31
0.258,0.207,3.406,4.099,64.0,12.18,23.21
0.086,0.186,3.406,4.097,64.0,12.18,23.05
-0.101,0.145,3.406,4.097,69.0,12.18,22.85
-0.106,0.186,3.403,4.095,69.0,12.2,22.56
-0.118,0.207,3.403,4.094,69.0,12.18,22.14
-0.129,0.166,3.403,4.094,69.0,12.18,21.79
-0.137,0.186,3.401,4.092,69.0,12.18,21.51
-0.141,0.145,3.401,4.092,69.0,12.18,21.23
-0.081,0.186,3.401,4.092,69.0,12.2,20.97
-0.14,0.269,3.399,4.089,69.0,12.18,20.69
-0.157,0.269,3.398,4.089,69.0,12.2,20.41
0.15,0.477,3.398,4.088,69.0,12.18,20.16
-0.111,0.207,3.398,4.087,69.0,12.18,19.95
-0.039,0.29,3.397,4.087,69.0,12.2,19.77
0.101,0.166,3.396,4.087,64.0,12.2,19.6
0.144,0.207,3.396,4.085,64.0,12.18,19.45
-0.133,0.249,3.394,4.084,64.0,12.18,19.31
-0.158,0.145,3.393,4.083,64.0,12.2,19.18
-0.153,0.207,3.393,4.082,64.0,12.18,18.96
-0.159,0.145,3.393,4.082,64.0,12.18,18.73
-0.16,0.207,3.392,4.08,64.0,12.18,18.61
-0.157,0.166,3.391,4.079,64.0,12.18,18.56
-0.155,0.145,3.391,4.079,64.0,12.18,18.52
-0.12,0.166,3.389,4.079,64.0,12.18,18.48
-0.115,0.207,3.388,4.077,64.0,12.2,18.44
-0.165,0.207,3.388,4.077,64.0,12.2,18.4
0.178,0.373,3.388,4.074,64.0,12.18,18.39
-0.142,0.269,3.387,4.074,64.0,12.18,18.39
-0.045,0.145,3.386,4.074,64.0,12.2,18.39
0.074,0.186,3.386,4.073,60.0,12.18,18.39
0.214,0.166,3.384,4.072,60.0,12.2,18.4
-0.023,0.166,3.383,4.072,60.0,12.2,18.4
-0.126,0.207,3.383,4.07,60.0,12.18,18.4
-0.121,0.145,3.383,4.069,60.0,12.18,18.36
-0.126,0.269,3.382,4.069,60.0,12.18,18.3
-0.128,0.186,3.381,4.068,60.0,12.18,18.28
-0.127,0.166,3.381,4.067,60.0,12.2,18.28
-0.126,0.207,3.379,4.065,60.0,12.18,18.28
-0.115,0.124,3.378,4.065,60.0,12.18,18.29
-0.064,0.249,3.378,4.065,60.0,12.2,18.28
-0.13,0.249,3.378,4.065,60.0,12.18,18.3
0.142,0.331,3.376,4.063,60.0,12.2,18.3
-0.073,0.394,3.376,4.062,60.0,12.18,18.32
-0.041,0.186,3.376,4.061,60.0,12.18,18.35
0.053,0.207,3.374,4.06,60.0,12.2,18.42
0.216,0.186,3.373,4.06,60.0,12.18,18.53
0.135,0.145,3.373,4.057,60.0,12.18,18.64
-0.083,0.207,3.373,4.057,60.0,12.18,18.78
-0.078,0.228,3.371,4.057,60.0,12.18,18.93
-0.076,0.207,3.371,4.056,60.0,12.18,18.99
-0.077,0.186,3.371,4.055,60.0,12.18,19.1
-0.069,0.166,3.368,4.055,60.0,12.18,19.29
-0.065,0.207,3.368,4.052,60.0,12.18,19.52
0.004,0.249,3.368,4.052,60.0,12.18,19.76
-0.045,0.207,3.367,4.052,60.0,12.18,19.96
-0.043,0.207,3.366,4.051,60.0,12.2,20.18
0.243,0.352,3.366,4.05,60.0,12.18,20.43
0.013,0.228,3.364,4.05,60.0,12.18,20.69
0.091,0.166,3.363,4.047,60.0,12.18,20.96
0.242,0.228,3.363,4.047,60.0,12.18,21.23
0.274,0.186,3.363,4.047,60.0,12.2,21.5
0.009,0.207,3.361,4.045,60.0,12.18,21.76
-0.012,0.186,3.361,4.045,60.0,12.2,21.98
-0.015,0.207,3.361,4.045,60.0,12.2,22.05
-0.027,0.228,3.361,4.043,65.0,12.2,22.13
-0.028,0.207,3.359,4.042,65.0,12.2,22.26
0.034,0.166,3.359,4.042,65.0,12.18,22.37
-0.028,0.228,3.359,4.042,65.0,12.2,22.48
-0.013,0.186,3.357,4.041,65.0,12.2,22.54
0.254,0.331,3.356,4.04,65.0,12.18,22.56
0.018,0.207,3.356,4.04,65.0,12.18,22.57
0.094,0.207,3.356,4.038,65.0,12.18,22.57
0.247,0.166,3.354,4.037,65.0,12.2,22.57
0.247,0.207,3.354,4.037,65.0,12.18,22.55
-0.016,0.249,3.354,4.036,65.0,12.2,22.48
-0.036,0.166,3.352,4.035,71.0,12.18,22.39
-0.042,0.166,3.351,4.033,71.0,12.18,22.15
-0.053,0.207,3.351,4.032,71.0,12.18,22.0
-0.049,0.207,3.351,4.032,71.0,12.18,21.96
0.002,0.228,3.349,4.031,71.0,12.18,21.91
-0.082,0.145,3.349,4.03,71.0,12.2,21.85
0.207,0.331,3.349,4.03,71.0,12.18,21.74
-0.036,0.477,3.346,4.027,71.0,12.2,21.63
-0.014,0.228,3.346,4.027,71.0,12.18,21.53
0.079,0.228,3.346,4.027,71.0,12.18,21.4
0.235,0.207,3.345,4.025,71.0,12.18,21.25
0.105,0.207,3.344,4.025,71.0,12.18,21.1
-0.095,0.311,3.344,4.025,73.0,12.18,20.93
-0.097,0.145,3.342,4.023,73.0,12.18,20.7
-0.111,0.186,3.342,4.022,73.0,12.18,20.36
-0.124,0.186,3.341,4.022,73.0,12.18,20.07
-0.13,0.186,3.341,4.021,73.0,12.2,19.87
-0.085,0.186,3.341,4.02,73.0,12.18,19.68
-0.12,0.186,3.34,4.02,73.0,12.2,19.53
-0.171,0.186,3.339,4.02,73.0,12.18,19.36
0.152,0.394,3.339,4.018,73.0,12.18,19.2
-0.12,0.29,3.339,4.017,73.0,12.18,19.04
-0.052,0.145,3.336,4.017,73.0,12.18,18.91
0.078,0.145,3.336,4.016,68.0,12.18,18.78
0.171,0.228,3.336,4.015,68.0,12.18,18.69
-0.105,0.186,3.335,4.015,68.0,12.18,18.62
-0.161,0.186,3.334,4.012,68.0,12.18,18.56
-0.156,0.228,3.334,4.012,68.0,12.18,18.46
-0.166,0.228,3.334,4.012,68.0,12.18,18.37
-0.167,0.207,3.332,4.012,68.0,12.2,18.31
-0.164,0.228,3.331,4.01,68.0,12.18,18.28
-0.12,0.145,3.331,4.01,68.0,12.18,18.26
-0.122,0.207,3.331,4.008,68.0,12.2,18.24
-0.171,0.228,3.33,4.007,68.0,12.18,18.23
0.177,0.352,3.329,4.007,68.0,12.2,18.23
-0.147,0.186,3.329,4.007,68.0,12.2,18.23
-0.046,0.269,3.329,4.005,68.0,12.2,18.24
0.077,0.145,3.327,4.005,65.0,12.2,18.25
0.22,0.166,3.326,4.005,65.0,12.18,18.28
-0.025,0.166,3.326,4.003,65.0,12.18,18.28
-0.119,0.207,3.326,4.002,65.0,12.18,18.3
-0.108,0.207,3.326,4.002,65.0,12.2,18.26
-0.113,0.249,3.324,4.002,65.0,12.18,18.21
-0.113,0.166,3.324,4.0,65.0,12.18,18.18
-0.111,0.249,3.324,4.0,65.0,12.18,18.18
-0.088,0.166,3.324,4.0,65.0,12.2,18.18
-0.04,0.186,3.321,3.997,65.0,12.2,18.2
-0.112,0.186,3.321,3.997,65.0,12.18,18.19
0.234,0.352,3.321,3.997,65.0,12.18,18.2
-0.102,0.269,3.32,3.995,65.0,12.2,18.21
-0.007,0.166,3.319,3.995,65.0,12.2,18.23
0.096,0.186,3.319,3.995,65.0,12.18,18.28
0.271,0.166,3.319,3.995,65.0,12.2,18.4
0.136,0.207,3.317,3.993,65.0,12.2,18.53
-0.056,0.228,3.316,3.992,65.0,12.18,18.66
-0.047,0.166,3.316,3.992,65.0,12.18,18.82
-0.045,0.269,3.315,3.992,65.0,12.2,18.89
-0.046,0.207,3.314,3.991,65.0,12.18,19.02
-0.042,0.145,3.314,3.99,65.0,12.18,19.22
-0.033,0.207,3.314,3.988,65.0,12.18,19.42
0.031,0.228,3.312,3.987,65.0,12.18,19.64
-0.014,0.186,3.311,3.987,65.0,12.18,19.82
-0.041,0.228,3.311,3.987,65.0,12.2,20.0
0.3,0.414,3.311,3.986,65.0,12.2,20.19
0.031,0.207,3.309,3.985,65.0,12.18,20.41
0.107,0.311,3.309,3.985,65.0,12.18,20.61
0.245,0.124,3.309,3.983,65.0,12.18,20.83
0.334,0.166,3.309,3.982,65.0,12.2,21.06
0.06,0.269,3.306,3.982,65.0,12.18,21.28
0.016,0.145,3.306,3.981,65.0,12.18,21.5
0.02,0.166,3.306,3.98,65.0,12.18,21.59
0.014,0.269,3.304,3.98,65.0,12.18,21.63
0.015,0.166,3.304,3.98,65.0,12.2,21.78
0.019,0.207,3.304,3.978,65.0,12.18,21.95
0.026,0.186,3.304,3.978,65.0,12.2,22.13
0.087,0.207,3.301,3.978,65.0,12.2,22.25
0.027,0.145,3.301,3.976,65.0,12.18,22.36
0.055,0.228,3.301,3.975,65.0,12.2,22.52
0.33,0.331,3.301,3.975,64.0,12.2,22.65
0.087,0.186,3.3,3.973,64.0,12.2,22.79
0.166,0.207,3.299,3.973,64.0,12.18,22.9
0.315,0.145,3.299,3.973,64.0,12.18,23.01
0.332,0.207,3.299,3.971,64.0,12.2,23.12
0.052,0.186,3.296,3.97,64.0,12.18,23.2
0.027,0.228,3.296,3.97,64.0,12.2,23.28
0.021,0.166,3.296,3.969,64.0,12.2,23.19
0.009,0.249,3.296,3.968,64.0,12.2,23.14
0.003,0.145,3.294,3.968,49.0,12.18,23.18
0.0,0.249,3.294,3.966,49.0,12.18,23.2
0.001,0.207,3.294,3.965,49.0,12.18,23.17
0.053,0.228,3.294,3.965,49.0,12.18,23.08
-0.006,0.249,3.291,3.965,49.0,12.18,23.01
0.001,0.186,3.291,3.964,49.0,12.18,22.97
0.309,0.477,3.291,3.963,49.0,12.2,22.89
0.045,0.207,3.291,3.963,49.0,12.2,22.75
0.116,0.186,3.289,3.963,49.0,12.18,22.6
0.267,0.145,3.289,3.961,49.0,12.18,22.48
0.298,0.207,3.289,3.96,49.0,12.18,22.35
0.005,0.166,3.286,3.96,49.0,12.18,22.23
-0.025,0.186,3.286,3.96,49.0,12.2,22.1
-0.032,0.186,3.286,3.959,49.0,12.18,21.79
-0.05,0.145,3.286,3.958,49.0,12.2,21.46
-0.059,0.145,3.286,3.958,49.0,12.18,21.23
-0.066,0.207,3.284,3.956,49.0,12.18,21.0
-0.072,0.207,3.284,3.955,49.0,12.18,20.83
-0.076,0.186,3.284,3.955,49.0,12.18,20.62
-0.041,0.166,3.281,3.955,49.0,12.2,20.4
-0.057,0.207,3.281,3.954,49.0,12.2,20.21
-0.102,0.207,3.281,3.953,49.0,12.18,20.03
0.261,0.352,3.281,3.953,49.0,12.2,19.91
-0.091,0.228,3.281,3.953,49.0,12.18,19.76
-0.003,0.228,3.279,3.95,49.0,12.18,19.6
0.112,0.228,3.279,3.95,56.0,12.18,19.47
0.263,0.166,3.279,3.95,56.0,12.2,19.34
0.009,0.228,3.279,3.95,56.0,12.18,19.19
-0.112,0.249,3.276,3.948,56.0,12.2,19.05
-0.106,0.228,3.276,3.948,56.0,12.18,18.86
-0.118,0.166,3.276,3.948,56.0,12.2,18.63
-0.124,0.186,3.276,3.946,56.0,12.18,18.53
-0.128,0.166,3.274,3.945,56.0,12.2,18.47
-0.126,0.166,3.274,3.945,56.0,12.2,18.45
-0.124,0.186,3.274,3.945,56.0,12.2,18.41
-0.12,0.166,3.274,3.944,56.0,12.18,18.36
-0.105,0.104,3.273,3.943,56.0,12.2,18.32
-0.07,0.145,3.272,3.943,56.0,12.2,18.3
-0.13,0.145,3.272,3.943,56.0,12.2,18.3
0.207,0.29,3.272,3.94,56.0,12.18,18.3
-0.123,0.373,3.272,3.94,56.0,12.2,18.29
-0.045,0.228,3.269,3.94,56.0,12.2,18.29
0.049,0.186,3.269,3.94,53.0,12.18,18.29
0.221,0.186,3.269,3.938,53.0,12.2,18.3
0.115,0.186,3.268,3.938,53.0,12.2,18.28
-0.117,0.207,3.267,3.938,53.0,12.18,18.28
-0.118,0.186,3.267,3.936,53.0,12.18,18.26
-0.12,0.166,3.267,3.935,53.0,12.2,18.2
-0.129,0.186,3.267,3.935,53.0,12.18,18.18
-0.131,0.228,3.264,3.934,53.0,12.2,18.18
-0.128,0.249,3.264,3.933,53.0,12.18,18.18
-0.125,0.166,3.264,3.933,53.0,12.2,18.19
-0.119,0.186,3.264,3.933,53.0,12.18,18.19
-0.115,0.207,3.262,3.933,53.0,12.2,18.21
-0.057,0.186,3.262,3.93,53.0,12.18,18.28
-0.097,0.207,3.262,3.93,53.0,12.18,18.39
-0.1,0.145,3.262,3.93,53.0,12.2,18.5
0.211,0.373,3.26,3.93,53.0,12.2,18.62
-0.036,0.228,3.259,3.929,53.0,12.18,18.81
0.038,0.186,3.259,3.928,53.0,12.2,19.04
0.192,0.145,3.259,3.928,53.0,12.2,19.29
0.282,0.186,3.258,3.928,53.0,12.18,19.52
-0.015,0.186,3.257,3.925,53.0,12.2,19.77
-0.054,0.228,3.257,3.925,53.0,12.2,20.0
-0.047,0.166,3.257,3.925,53.0,12.2,20.14
-0.051,0.145,3.255,3.925,53.0,12.18,20.28
-0.048,0.166,3.254,3.923,53.0,12.18,20.53
-0.045,0.249,3.254,3.923,53.0,12.2,20.8
-0.04,0.228,3.254,3.921,53.0,12.2,21.11
-0.035,0.207,3.254,3.923,53.0,12.18,21.37
0.019,0.249,3.253,3.92,53.0,12.2,21.62
-0.024,0.228,3.252,3.92,53.0,12.18,21.91
0.03,0.228,3.252,3.919,53.0,12.18,22.19
0.249,0.373,3.252,3.918,53.0,12.18,22.46
0.043,0.207,3.252,3.918,53.0,12.18,22.7
0.123,0.166,3.249,3.918,53.0,12.2,22.93
0.277,0.207,3.249,3.916,53.0,12.18,23.12
0.29,0.207,3.249,3.915,53.0,12.2,23.29
0.005,0.166,3.247,3.915,53.0,12.18,23.42
-0.021,0.186,3.247,3.914,58.0,12.2,23.53
-0.032,0.166,3.247,3.913,58.0,12.2,23.5
-0.044,0.186,3.247,3.913,58.0,12.18,23.5
-0.051,0.207,3.245,3.911,58.0,12.2,23.57
-0.054,0.207,3.244,3.91,58.0,12.18,23.59
-0.051,0.145,3.244,3.91,58.0,12.18,23.56
-0.005,0.186,3.244,3.91,58.0,12.18,23.49
-0.073,0.145,3.243,3.91,58.0,12.2,23.43
0.212,0.29,3.242,3.908,58.0,12.2,23.37
-0.012,0.29,3.242,3.908,58.0,12.18,23.28
-0.006,0.145,3.242,3.908,58.0,12.2,23.13
0.081,0.145,3.24,3.908,62.0,12.2,22.97
0.249,0.228,3.239,3.905,62.0,12.18,22.81
0.149,0.186,3.239,3.905,62.0,12.18,22.63
-0.089,0.186,3.239,3.904,62.0,12.18,22.43
-0.096,0.166,3.239,3.905,62.0,12.18,22.18
-0.109,0.186,3.237,3.903,62.0,12.18,21.79
-0.125,0.228,3.237,3.903,62.0,12.18,21.42
-0.132,0.269,3.237,3.903,62.0,12.18,21.14
-0.138,0.249,3.237,3.901,62.0,12.18,20.88
-0.134,0.166,3.234,3.9,62.0,12.18,20.66
-0.085,0.249,3.234,3.9,62.0,12.18,20.4
-0.161,0.228,3.234,3.898,62.0,12.18,20.13
0.158,0.331,3.234,3.898,62.0,12.18,19.9
-0.137,0.29,3.233,3.898,62.0,12.18,19.71
-0.09,0.166,3.232,3.898,62.0,12.18,19.54
-0.002,0.145,3.232,3.895,62.0,12.18,19.36
0.164,0.145,3.232,3.895,62.0,12.2,19.21
0.065,0.145,3.232,3.895,62.0,12.18,19.06
-0.163,0.207,3.23,3.894,62.0,12.2,18.9
-0.167,0.29,3.229,3.895,62.0,12.18,18.74
-0.168,0.207,3.229,3.893,62.0,12.2,18.55
-0.171,0.186,3.229,3.893,62.0,12.18,18.45
-0.169,0.228,3.228,3.893,62.0,12.18,18.39
-0.167,0.124,3.228,3.891,62.0,12.18,18.35
-0.163,0.166,3.227,3.891,62.0,12.2,18.29
-0.157,0.207,3.227,3.891,62.0,12.18,18.28
-0.135,0.166,3.227,3.891,62.0,12.18,18.25
-0.097,0.166,3.225,3.888,62.0,12.18,18.24
-0.158,0.207,3.224,3.888,62.0,12.18,18.24
0.228,0.394,3.224,3.888,62.0,12.18,18.24
-0.191,0.435,3.224,3.887,62.0,12.2,18.23
-0.059,0.207,3.222,3.886,62.0,12.18,18.25
0.043,0.228,3.223,3.886,55.0,12.18,18.25
0.211,0.145,3.222,3.884,55.0,12.18,18.27
0.057,0.124,3.222,3.886,55.0,12.18,18.28
-0.126,0.186,3.222,3.883,55.0,12.2,18.28
-0.123,0.145,3.219,3.883,55.0,12.18,18.24
-0.129,0.145,3.219,3.882,55.0,12.18,18.19
-0.134,0.186,3.219,3.881,55.0,12.2,18.17
-0.135,0.228,3.219,3.881,55.0,12.18,18.17
-0.131,0.249,3.219,3.881,55.0,12.2,18.18
-0.127,0.228,3.218,3.879,55.0,12.18,18.19
-0.12,0.207,3.217,3.878,55.0,12.2,18.19
-0.061,0.228,3.217,3.878,55.0,12.18,18.21
-0.126,0.228,3.217,3.878,55.0,12.18,18.25
0.109,0.352,3.217,3.877,55.0,12.2,18.29
-0.044,0.394,3.214,3.877,55.0,12.2,18.32
-0.051,0.207,3.214,3.876,55.0,12.18,18.33
0.036,0.166,3.214,3.876,55.0,12.18,18.34
0.192,0.207,3.214,3.876,55.0,12.18,18.35
0.15,0.207,3.213,3.873,55.0,12.18,18.36
-0.094,0.186,3.212,3.873,57.0,12.18,18.35
-0.1,0.186,3.212,3.873,57.0,12.2,18.35
-0.1,0.166,3.212,3.871,57.0,12.18,18.29
-0.105,0.207,3.21,3.871,57.0,12.18,18.26
-0.103,0.145,3.209,3.871,57.0,12.18,18.32
-0.096,0.145,3.209,3.868,57.0,12.18,18.43
-0.091,0.124,3.209,3.868,57.0,12.18,18.57
-0.072,0.186,3.208,3.868,57.0,12.18,18.73
-0.024,0.166,3.207,3.868,57.0,12.18,18.93
-0.086,0.186,3.207,3.866,57.0,12.18,19.14
0.295,0.269,3.207,3.866,57.0,12.18,19.39
-0.111,0.29,3.205,3.866,57.0,12.18,19.64
0.017,0.145,3.204,3.866,57.0,12.18,19.9
0.117,0.269,3.204,3.866,57.0,12.18,20.16
0.282,0.207,3.204,3.863,57.0,12.18,20.42
0.143,0.186,3.203,3.863,57.0,12.2,20.69
-0.035,0.207,3.202,3.863,57.0,12.2,20.97
-0.032,0.166,3.202,3.862,59.0,12.18,21.15
-0.039,0.166,3.202,3.861,59.0,12.18,21.3
-0.04,0.228,3.202,3.861,59.0,12.18,21.5
-0.039,0.186,3.2,3.861,59.0,12.18,21.77
-0.037,0.228,3.199,3.859,59.0,12.18,22.08
0.028,0.186,3.199,3.858,59.0,12.18,22.35
-0.029,0.186,3.199,3.858,59.0,12.18,22.56
-0.02,0.249,3.199,3.858,59.0,12.18,22.77
0.245,0.331,3.197,3.858,59.0,12.18,22.96
0.013,0.228,3.197,3.856,59.0,12.18,23.11
0.093,0.207,3.197,3.856,59.0,12.18,23.24
0.244,0.124,3.197,3.856,59.0,12.2,23.34
0.27,0.186,3.195,3.854,59.0,12.18,23.4
0.0,0.166,3.194,3.854,59.0,12.18,23.43
-0.028,0.166,3.194,3.853,64.0,12.18,23.41
-0.037,0.207,3.194,3.853,64.0,12.18,23.27
-0.049,0.166,3.194,3.853,64.0,12.18,23.18
-0.058,0.186,3.193,3.851,64.0,12.18,23.18
-0.049,0.166,3.192,3.851,64.0,12.18,23.15
-0.003,0.311,3.192,3.851,64.0,12.18,23.1
-0.08,0.228,3.192,3.851,64.0,12.18,23.01
0.299,0.394,3.192,3.851,64.0,12.18,22.9
-0.105,0.352,3.189,3.849,64.0,12.18,22.81
-0.004,0.186,3.189,3.848,64.0,12.18,22.7
0.089,0.186,3.189,3.848,64.0,12.18,22.56
0.248,0.249,3.188,3.847,64.0,12.2,22.42
0.104,0.166,3.187,3.846,64.0,12.18,22.24
-0.084,0.228,3.187,3.846,68.0,12.18,22.05
-0.085,0.186,3.187,3.846,68.0,12.18,21.77
-0.098,0.228,3.187,3.846,68.0,12.18,21.43
-0.107,0.186,3.185,3.843,68.0,12.18,21.18
-0.11,0.166,3.185,3.843,68.0,12.18,21.01
-0.115,0.145,3.185,3.843,68.0,12.18,20.88
-0.054,0.29,3.185,3.843,68.0,12.18,20.73
-0.113,0.186,3.185,3.842,68.0,12.18,20.55
-0.116,0.29,3.183,3.841,68.0,12.18,20.38
0.181,0.58,3.182,3.841,68.0,12.18,20.22
-0.077,0.145,3.182,3.841,68.0,12.18,20.09
-0.005,0.269,3.182,3.838,68.0,12.18,19.98
0.132,0.166,3.181,3.838,64.0,12.18,19.87
0.182,0.207,3.18,3.838,64.0,12.18,19.75
-0.092,0.166,3.18,3.838,64.0,12.18,19.61
-0.125,0.249,3.18,3.837,64.0,12.18,19.48
-0.125,0.186,3.18,3.836,64.0,12.18,19.25
-0.132,0.29,3.18,3.836,64.0,12.18,19.02
-0.133,0.166,3.178,3.836,64.0,12.18,18.88
-0.131,0.186,3.177,3.836,64.0,12.18,18.76
-0.132,0.331,3.177,3.833,64.0,12.2,18.67
-0.126,0.145,3.177,3.833,64.0,12.18,18.6
-0.062,0.145,3.175,3.833,64.0,12.18,18.54
-0.137,0.207,3.175,3.832,64.0,12.18,18.49
0.019,0.249,3.175,3.831,64.0,12.18,18.46
0.024,0.352,3.175,3.831,64.0,12.18,18.44
-0.068,0.228,3.175,3.831,64.0,12.18,18.41
0.019,0.145,3.173,3.829,59.0,12.18,18.4
0.17,0.186,3.172,3.828,59.0,12.18,18.39
0.16,0.186,3.172,3.828,59.0,12.18,18.38
-0.091,0.145,3.172,3.828,59.0,12.18,18.37
-0.101,0.207,3.172,3.828,59.0,12.2,18.34
-0.103,0.249,3.172,3.826,59.0,12.18,18.27
-0.109,0.145,3.17,3.826,59.0,12.2,18.22
-0.109,0.269,3.17,3.826,59.0,12.2,18.21
-0.105,0.249,3.17,3.826,59.0,12.2,18.21
-0.1,0.145,3.17,3.823,59.0,12.18,18.22
-0.074,0.186,3.17,3.823,59.0,12.18,18.22
-0.051,0.207,3.168,3.823,59.0,12.18,18.23
-0.108,0.249,3.167,3.822,59.0,12.18,18.25
0.256,0.269,3.167,3.821,59.0,12.18,18.28
-0.118,0.311,3.167,3.821,59.0,12.18,18.32
-0.003,0.228,3.167,3.821,59.0,12.18,18.33
0.103,0.249,3.165,3.821,59.0,12.18,18.35
0.25,0.186,3.165,3.821,59.0,12.18,18.35
0.069,0.166,3.165,3.818,59.0,12.2,18.36
-0.073,0.228,3.165,3.818,59.0,12.18,18.36
-0.067,0.228,3.165,3.818,59.0,12.18,18.32
-0.075,0.228,3.162,3.816,59.0,12.18,18.25
-0.074,0.124,3.162,3.816,59.0,12.18,18.22
-0.074,0.124,3.162,3.816,59.0,12.18,18.2
-0.071,0.186,3.162,3.816,59.0,12.18,18.22
-0.034,0.249,3.161,3.813,59.0,12.18,18.23
-0.015,0.269,3.16,3.813,59.0,12.18,18.23
-0.073,0.186,3.16,3.813,59.0,12.18,18.33
0.274,0.394,3.16,3.813,59.0,12.18,18.34
-0.058,0.269,3.16,3.811,59.0,12.18,18.45
0.042,0.186,3.157,3.811,59.0,12.18,18.58
0.16,0.166,3.157,3.811,59.0,12.2,18.73
0.309,0.145,3.157,3.811,59.0,12.18,18.95
0.093,0.207,3.157,3.809,59.0,12.2,19.15
-0.015,0.249,3.157,3.808,62.0,12.18,19.36
-0.008,0.207,3.156,3.808,62.0,12.18,19.51
-0.013,0.186,3.155,3.808,62.0,12.18,19.59
-0.01,0.145,3.155,3.807,62.0,12.18,19.78
-0.005,0.166,3.155,3.806,62.0,12.18,20.01
0.064,0.228,3.153,3.806,62.0,12.18,20.3
-0.003,0.166,3.152,3.806,62.0,12.18,20.57
0.086,0.269,3.152,3.803,62.0,12.18,20.8
0.228,0.373,3.152,3.804,62.0,12.18,21.06
0.069,0.207,3.152,3.803,62.0,12.18,21.32
0.153,0.166,3.152,3.803,62.0,12.18,21.58
0.303,0.186,3.151,3.803,62.0,12.2,21.85
0.294,0.166,3.151,3.801,62.0,12.18,22.11
0.048,0.228,3.15,3.801,62.0,12.18,22.36
0.035,0.228,3.15,3.801,62.0,12.18,22.56
0.03,0.186,3.15,3.801,62.0,12.18,22.66
0.023,0.186,3.15,3.799,62.0,12.18,22.77
0.027,0.228,3.148,3.799,62.0,12.18,22.95
0.082,0.166,3.147,3.799,62.0,12.18,23.12
0.002,0.186,3.147,3.799,62.0,12.18,23.24
0.292,0.331,3.147,3.799,68.0,12.18,23.3
0.057,0.331,3.147,3.797,68.0,12.2,23.37
0.073,0.124,3.146,3.796,68.0,12.18,23.42
0.162,0.249,3.145,3.796,68.0,12.18,23.47
0.316,0.166,3.145,3.796,68.0,12.18,23.48
0.209,0.228,3.145,3.794,68.0,12.18,23.43
0.004,0.207,3.145,3.794,68.0,12.2,23.38
0.0,0.166,3.145,3.794,68.0,12.18,23.27
-0.013,0.207,3.142,3.794,68.0,12.2,23.09
-0.026,0.228,3.142,3.792,68.0,12.18,23.05
-0.026,0.166,3.142,3.791,68.0,12.18,23.01
0.027,0.228,3.142,3.791,68.0,12.18,22.92
-0.056,0.228,3.142,3.791,68.0,12.18,22.82
0.119,0.331,3.14,3.789,68.0,12.18,22.7
0.105,0.352,3.14,3.789,68.0,12.18,22.6
0.0,0.207,3.14,3.789,68.0,12.18,22.51
0.079,0.166,3.14,3.787,68.0,12.18,22.38
0.225,0.373,3.137,3.786,68.0,12.18,22.25
0.164,0.186,3.137,3.786,68.0,12.18,22.06
-0.069,0.166,3.137,3.786,68.0,12.18,21.81
-0.082,0.249,3.137,3.786,68.0,12.18,21.49
-0.095,0.166,3.137,3.786,68.0,12.18,21.08
-0.106,0.186,3.137,3.784,68.0,12.18,20.73
-0.114,0.145,3.135,3.784,68.0,12.18,20.5
-0.118,0.145,3.135,3.784,68.0,12.18,20.29
-0.107,0.207,3.135,3.784,68.0,12.18,20.13
-0.061,0.207,3.133,3.782,68.0,12.18,19.91
-0.139,0.228,3.132,3.781,68.0,12.18,19.68
0.207,0.373,3.132,3.781,68.0,12.18,19.48
-0.148,0.331,3.132,3.781,68.0,12.18,19.31
-0.067,0.249,3.132,3.781,68.0,12.18,19.16
0.026,0.166,3.132,3.779,62.0,12.18,19.03
0.169,0.207,3.132,3.779,62.0,12.18,18.91
0.076,0.166,3.131,3.779,62.0,12.18,18.79
-0.116,0.166,3.13,3.779,62.0,12.18,18.66
-0.113,0.207,3.13,3.776,62.0,12.18,18.56
-0.12,0.166,3.13,3.776,62.0,12.18,18.43
-0.125,0.207,3.13,3.776,62.0,12.18,18.35
-0.128,0.249,3.13,3.776,62.0,12.18,18.3
-0.129,0.228,3.13,3.775,62.0,12.18,18.28
-0.122,0.228,3.128,3.774,62.0,12.18,18.25
-0.052,0.145,3.127,3.774,62.0,12.18,18.23
-0.123,0.269,3.127,3.774,62.0,12.18,18.23
0.021,0.249,3.127,3.772,62.0,12.18,18.23
0.04,0.456,3.127,3.771,62.0,12.18,18.23
-0.058,0.29,3.125,3.771,62.0,12.18,18.25
0.029,0.145,3.125,3.771,61.0,12.18,18.26
0.174,0.249,3.125,3.771,61.0,12.18,18.28
0.155,0.145,3.125,3.77,61.0,12.18,18.29
-0.087,0.228,3.125,3.769,61.0,12.18,18.29
-0.097,0.166,3.122,3.769,61.0,12.18,18.29
-0.101,0.228,3.122,3.769,61.0,12.18,18.22
-0.107,0.228,3.122,3.766,61.0,12.2,18.18
-0.103,0.166,3.122,3.766,61.0,12.18,18.18
-0.101,0.207,3.122,3.766,61.0,12.18,18.23
-0.088,0.228,3.122,3.766,61.0,12.18,18.32
-0.026,0.249,3.122,3.766,61.0,12.18,18.42
-0.095,0.145,3.12,3.766,61.0,12.18,18.53
0.181,0.373,3.12,3.764,61.0,12.18,18.66
-0.029,0.29,3.12,3.764,61.0,12.18,18.86
-0.005,0.186,3.12,3.764,61.0,12.18,19.07
0.088,0.249,3.12,3.764,61.0,12.18,19.3
0.239,0.124,3.118,3.764,61.0,12.18,19.53
0.177,0.228,3.117,3.761,61.0,12.18,19.76
-0.034,0.228,3.117,3.761,61.0,12.18,19.98
-0.033,0.186,3.117,3.761,62.0,12.18,20.15
-0.034,0.104,3.115,3.761,62.0,12.18,20.25
-0.033,0.207,3.115,3.76,62.0,12.2,20.38
-0.028,0.207,3.115,3.759,62.0,12.18,20.63
-0.019,0.228,3.115,3.759,62.0,12.18,20.91
0.049,0.228,3.115,3.759,62.0,12.18,21.22
-0.01,0.166,3.112,3.757,62.0,12.18,21.49
0.066,0.207,3.112,3.756,62.0,12.18,21.78
0.244,0.352,3.112,3.756,62.0,12.18,22.08
0.063,0.29,3.112,3.756,62.0,12.18,22.38
0.148,0.186,3.112,3.756,62.0,12.18,22.65
0.291,0.145,3.112,3.754,62.0,12.18,22.91
0.29,0.186,3.112,3.754,62.0,12.18,23.15
0.045,0.29,3.112,3.754,62.0,12.18,23.32
0.028,0.186,3.111,3.754,65.0,12.18,23.46
0.022,0.249,3.11,3.752,65.0,12.18,23.51
0.015,0.228,3.11,3.751,65.0,12.18,23.63
0.01,0.186,3.11,3.751,65.0,12.18,23.79
0.028,0.207,3.11,3.751,65.0,12.18,23.93
0.065,0.186,3.11,3.751,65.0,12.18,24.03
-0.009,0.186,3.11,3.75,65.0,12.18,24.1
0.397,0.249,3.11,3.749,65.0,12.18,24.15
-0.048,0.331,3.108,3.749,65.0,12.18,24.16
0.072,0.249,3.108,3.749,65.0,12.18,24.12
0.175,0.228,3.107,3.749,65.0,12.18,24.03
0.32,0.166,3.107,3.747,65.0,12.18,23.96
0.135,0.269,3.107,3.746,65.0,12.18,23.81
-0.021,0.249,3.107,3.746,68.0,12.18,23.67
-0.026,0.228,3.107,3.746,68.0,12.18,23.45
-0.042,0.166,3.106,3.746,68.0,12.18,23.19
-0.055,0.228,3.105,3.744,68.0,12.18,23.0
-0.065,0.207,3.105,3.744,68.0,12.18,22.8
-0.032,0.207,3.105,3.744,68.0,12.18,22.57
-0.045,0.228,3.105,3.744,68.0,12.18,22.3
-0.102,0.311,3.105,3.742,68.0,12.18,21.97
0.251,0.394,3.102,3.742,68.0,12.18,21.64
-0.08,0.207,3.102,3.741,68.0,12.18,21.33
-0.006,0.186,3.102,3.741,68.0,12.18,21.0
0.107,0.207,3.102,3.741,67.0,12.18,20.71
0.218,0.166,3.102,3.739,67.0,12.18,20.45
-0.032,0.207,3.101,3.739,67.0,12.18,20.19
-0.119,0.228,3.1,3.739,67.0,12.18,19.97
-0.121,0.228,3.1,3.739,67.0,12.18,19.69
-0.135,0.145,3.1,3.739,67.0,12.18,19.36
-0.14,0.207,3.1,3.737,67.0,12.18,19.13
-0.14,0.186,3.1,3.736,67.0,12.18,18.98
-0.139,0.186,3.1,3.736,67.0,12.18,18.83
-0.085,0.166,3.1,3.736,67.0,12.18,18.7
-0.123,0.228,3.097,3.736,67.0,12.18,18.59
-0.16,0.269,3.097,3.736,67.0,12.18,18.51
0.15,0.311,3.097,3.735,67.0,12.18,18.46
-0.1,0.228,3.097,3.734,67.0,12.18,18.43
-0.032,0.186,3.097,3.734,67.0,12.18,18.4
0.096,0.269,3.095,3.734,62.0,12.18,18.39
0.179,0.207,3.095,3.734,62.0,12.18,18.37
-0.085,0.166,3.095,3.731,62.0,12.18,18.36
-0.135,0.269,3.095,3.731,62.0,12.18,18.35
-0.135,0.186,3.095,3.731,62.0,12.18,18.29
-0.144,0.186,3.095,3.731,62.0,12.18,18.24
-0.143,0.207,3.093,3.73,62.0,12.18,18.22
-0.144,0.124,3.093,3.729,62.0,12.18,18.22
-0.139,0.186,3.093,3.729,62.0,12.18,18.23
-0.105,0.145,3.093,3.729,62.0,12.18,18.23
-0.086,0.207,3.093,3.729,62.0,12.18,18.23
-0.146,0.145,3.093,3.729,62.0,12.18,18.24
0.2,0.331,3.09,3.727,62.0,12.18,18.32
-0.139,0.249,3.09,3.726,62.0,12.18,18.44
-0.036,0.186,3.09,3.726,62.0,12.18,18.57
0.076,0.166,3.09,3.726,60.0,12.18,18.73
0.217,0.166,3.09,3.726,60.0,12.18,18.97
0.015,0.166,3.088,3.724,60.0,12.18,19.19
-0.1,0.166,3.088,3.724,60.0,12.18,19.41
-0.094,0.186,3.088,3.724,60.0,12.18,19.57
-0.098,0.145,3.088,3.724,60.0,12.18,19.66
-0.097,0.207,3.088,3.724,60.0,12.18,19.84
-0.093,0.166,3.086,3.724,60.0,12.18,20.06
-0.063,0.166,3.085,3.721,60.0,12.18,20.32
-0.033,0.186,3.085,3.721,60.0,12.18,20.6
-0.096,0.207,3.085,3.721,60.0,12.18,20.84
0.281,0.311,3.085,3.721,60.0,12.18,21.13
-0.1,0.311,3.085,3.721,60.0,12.18,21.42
0.019,0.249,3.083,3.72,60.0,12.18,21.72
0.132,0.166,3.083,3.719,60.0,12.18,22.01
0.266,0.249,3.083,3.719,60.0,12.18,22.31
0.063,0.207,3.083,3.719,60.0,12.18,22.59
-0.054,0.228,3.083,3.719,66.0,12.18,22.83
-0.053,0.186,3.083,3.719,66.0,12.18,22.96
-0.061,0.166,3.081,3.716,66.0,12.18,23.03
-0.066,0.207,3.08,3.716,66.0,12.18,23.16
-0.049,0.228,3.08,3.716,66.0,12.18,23.26
-0.065,0.228,3.08,3.716,66.0,12.18,23.32
-0.093,0.228,3.08,3.715,66.0,12.18,23.32
0.313,0.269,3.08,3.714,66.0,12.18,23.29
-0.127,0.331,3.078,3.714,66.0,12.18,23.28
0.003,0.207,3.079,3.714,66.0,12.18,23.24
0.109,0.207,3.078,3.713,66.0,12.18,23.13
0.254,0.166,3.078,3.712,66.0,12.18,23.12
0.062,0.228,3.078,3.712,66.0,12.18,23.0
-0.078,0.186,3.078,3.712,70.0,12.18,22.9
-0.08,0.228,3.078,3.712,70.0,12.18,22.69
-0.091,0.249,3.076,3.712,70.0,12.18,22.41
-0.099,0.29,3.075,3.709,70.0,12.18,22.25
-0.107,0.207,3.075,3.709,70.0,12.18,22.1
-0.056,0.207,3.075,3.709,70.0,12.18,21.93
-0.095,0.228,3.074,3.709,70.0,12.18,21.7
-0.144,0.186,3.074,3.709,70.0,12.18,21.42
0.195,0.331,3.073,3.708,70.0,12.18,21.16
-0.096,0.311,3.073,3.707,70.0,12.18,20.92
-0.033,0.207,3.073,3.707,70.0,12.18,20.68
0.087,0.186,3.073,3.707,68.0,12.18,20.46
0.175,0.249,3.071,3.707,68.0,12.18,20.25
-0.088,0.249,3.07,3.707,68.0,12.18,20.0
-0.147,0.186,3.07,3.705,68.0,12.18,19.78
-0.146,0.249,3.07,3.704,68.0,12.18,19.5
-0.16,0.228,3.07,3.704,68.0,12.18,19.18
-0.161,0.228,3.07,3.704,68.0,12.18,18.95
-0.163,0.228,3.07,3.703,68.0,12.18,18.76
-0.162,0.166,3.068,3.702,68.0,12.18,18.61
-0.1,0.207,3.068,3.702,68.0,12.18,18.53
-0.14,0.228,3.068,3.702,68.0,12.18,18.46
-0.176,0.186,3.068,3.702,68.0,12.18,18.4
0.144,0.352,3.068,3.7,68.0,12.18,18.36
-0.107,0.186,3.066,3.699,68.0,12.18,18.33
-0.038,0.207,3.065,3.699,68.0,12.18,18.33
0.087,0.166,3.065,3.699,62.0,12.18,18.32
0.181,0.145,3.065,3.699,62.0,12.18,18.33
-0.078,0.145,3.065,3.699,62.0,12.18,18.33
-0.133,0.186,3.065,3.697,62.0,12.18,18.32
-0.129,0.249,3.065,3.697,62.0,12.18,18.27
-0.139,0.186,3.064,3.697,62.0,12.18,18.23
-0.137,0.186,3.063,3.697,62.0,12.18,18.22
-0.134,0.207,3.063,3.695,62.0,12.18,18.22
-0.111,0.186,3.063,3.694,62.0,12.18,18.23
-0.09,0.166,3.063,3.694,62.0,12.18,18.23
-0.067,0.207,3.061,3.694,62.0,12.18,18.23
-0.138,0.228,3.06,3.693,62.0,12.18,18.24
0.239,0.228,3.06,3.693,62.0,12.18,18.24
-0.173,0.29,3.06,3.692,62.0,12.18,18.28
-0.037,0.249,3.06,3.692,62.0,12.18,18.28
0.065,0.186,3.06,3.692,60.0,12.18,18.29
0.219,0.228,3.058,3.692,60.0,12.18,18.36
0.089,0.166,3.058,3.692,60.0,12.18,18.48
-0.085,0.269,3.058,3.69,60.0,12.18,18.6
-0.076,0.207,3.058,3.689,60.0,12.18,18.76
-0.076,0.166,3.058,3.689,60.0,12.18,18.86
-0.074,0.186,3.058,3.689,60.0,12.18,19.03
-0.071,0.228,3.055,3.689,60.0,12.18,19.27
-0.054,0.166,3.055,3.688,60.0,12.18,19.53
0.009,0.207,3.055,3.688,60.0,12.18,19.81
-0.061,0.249,3.055,3.687,60.0,12.18,20.07
0.216,0.29,3.054,3.687,60.0,12.18,20.34
0.005,0.373,3.053,3.687,60.0,12.18,20.63
0.03,0.228,3.053,3.687,60.0,12.18,20.92
0.125,0.228,3.053,3.687,60.0,12.18,21.21
0.274,0.186,3.053,3.685,60.0,12.18,21.5
0.195,0.166,3.053,3.684,60.0,12.18,21.78
-0.005,0.207,3.053,3.684,60.0,12.18,22.08
-0.008,0.186,3.05,3.684,60.0,12.18,22.31
-0.012,0.145,3.05,3.684,60.0,12.18,22.46
-0.02,0.207,3.05,3.683,60.0,12.18,22.59
-0.014,0.207,3.05,3.682,60.0,12.18,22.73
0.044,0.207,3.05,3.682,60.0,12.18,22.84
-0.035,0.186,3.05,3.682,60.0,12.18,22.91
0.197,0.352,3.049,3.682,65.0,12.18,22.94
0.066,0.311,3.048,3.682,65.0,12.18,22.99
0.037,0.228,3.048,3.679,65.0,12.18,23.03
0.129,0.166,3.048,3.679,65.0,12.18,23.04
0.277,0.29,3.048,3.679,65.0,12.18,23.04
0.194,0.228,3.048,3.679,65.0,12.18,22.98
-0.017,0.228,3.046,3.679,65.0,12.18,22.91
-0.02,0.249,3.045,3.678,54.0,12.18,22.79
-0.031,0.166,3.045,3.677,54.0,12.18,22.56
-0.042,0.228,3.045,3.677,54.0,12.18,22.43
-0.048,0.249,3.045,3.677,54.0,12.18,22.33
-0.009,0.145,3.043,3.677,54.0,12.18,22.16
-0.031,0.269,3.043,3.674,54.0,12.18,21.96
-0.087,0.166,3.043,3.674,54.0,12.18,21.69
0.249,0.414,3.043,3.674,54.0,12.18,21.36
-0.062,0.207,3.043,3.674,54.0,12.18,21.03
0.007,0.269,3.041,3.674,54.0,12.18,20.72
0.122,0.166,3.04,3.672,54.0,12.18,20.45
0.229,0.228,3.04,3.672,54.0,12.18,20.2
-0.023,0.124,3.04,3.672,54.0,12.18,19.96
-0.095,0.311,3.04,3.672,54.0,12.18,19.73
-0.093,0.228,3.04,3.672,54.0,12.18,19.42
-0.106,0.145,3.04,3.672,54.0,12.18,19.1
-0.112,0.166,3.04,3.669,54.0,12.18,18.89
-0.115,0.186,3.04,3.669,54.0,12.18,18.71
-0.097,0.186,3.038,3.669,54.0,12.18,18.6
-0.055,0.249,3.038,3.669,54.0,12.18,18.54
-0.132,0.207,3.038,3.668,54.0,12.18,18.47
0.251,0.331,3.038,3.668,54.0,12.18,18.42
-0.177,0.394,3.038,3.667,54.0,12.18,18.4
-0.044,0.166,3.036,3.667,54.0,12.18,18.38
0.059,0.249,3.035,3.667,65.0,12.18,18.36
0.206,0.207,3.035,3.667,65.0,12.18,18.37
0.067,0.207,3.035,3.665,65.0,12.18,18.37
-0.101,0.186,3.035,3.664,65.0,12.18,18.38
-0.097,0.249,3.035,3.664,65.0,12.18,18.35
-0.104,0.124,3.034,3.664,65.0,12.18,18.3
-0.111,0.269,3.033,3.662,65.0,12.18,18.27
-0.107,0.124,3.033,3.662,65.0,12.18,18.26
-0.098,0.166,3.033,3.662,65.0,12.18,18.27
-0.093,0.166,3.033,3.662,65.0,12.18,18.28
-0.105,0.166,3.033,3.662,65.0,12.18,18.28
0.075,0.269,3.03,3.662,65.0,12.18,18.35
0.052,0.352,3.031,3.662,65.0,12.18,18.46
-0.018,0.207,3.031,3.66,65.0,12.18,18.61
0.072,0.145,3.03,3.659,65.0,12.18,19.08
0.225,0.207,3.03,3.659,65.0,12.18,19.12
0.193,0.228,3.03,3.659,65.0,12.18,19.38
-0.037,0.228,3.029,3.658,65.0,12.18,19.65
-0.036,0.207,3.028,3.658,65.0,12.18,19.89
-0.035,0.124,3.028,3.657,65.0,12.18,20.04
-0.037,0.166,3.028,3.657,65.0,12.18,20.22
-0.027,0.166,3.028,3.657,65.0,12.18,20.49
0.04,0.166,3.028,3.657,65.0,12.18,20.78
-0.03,0.186,3.028,3.657,65.0,12.18,21.11
0.115,0.29,3.028,3.654,65.0,12.18,21.39
0.159,0.414,3.025,3.655,65.0,12.18,21.7
0.049,0.207,3.025,3.654,65.0,12.18,22.04
0.136,0.207,3.025,3.654,65.0,12.18,22.4
0.28,0.207,3.025,3.654,65.0,12.18,22.7
0.226,0.207,3.025,3.654,65.0,12.18,22.93
0.0,0.207,3.024,3.653,65.0,12.18,23.11
-0.011,0.269,3.025,3.652,71.0,12.18,23.23
-0.021,0.166,3.023,3.652,71.0,12.18,23.21
-0.029,0.249,3.023,3.652,71.0,12.18,23.23
-0.019,0.166,3.023,3.652,71.0,12.18,23.22
0.018,0.228,3.023,3.652,71.0,12.18,23.12
-0.061,0.166,3.023,3.652,71.0,12.18,23.02
0.325,0.352,3.023,3.65,71.0,12.18,22.85
-0.096,0.394,3.021,3.649,71.0,12.18,22.66
0.014,0.269,3.02,3.649,71.0,12.18,22.45
0.107,0.166,3.02,3.649,71.0,12.18,22.26
0.249,0.207,3.02,3.649,71.0,12.18,22.07
0.089,0.166,3.02,3.647,71.0,12.18,21.83
-0.073,0.228,3.02,3.647,72.0,12.18,21.58
-0.079,0.166,3.02,3.647,72.0,12.18,21.28
-0.095,0.249,3.018,3.647,72.0,12.18,20.89
-0.107,0.186,3.019,3.647,72.0,12.18,20.56
-0.115,0.186,3.018,3.647,72.0,12.18,20.33
-0.102,0.207,3.018,3.644,72.0,12.18,20.11
-0.063,0.29,3.018,3.644,72.0,12.18,19.9
-0.144,0.186,3.018,3.644,72.0,12.18,19.68
-0.154,0.207,3.018,3.644,72.0,12.18,19.46
-0.141,0.186,3.016,3.644,72.0,12.18,19.26
-0.065,0.124,3.015,3.642,72.0,12.18,19.09
0.034,0.145,3.015,3.642,72.0,12.18,18.95
0.178,0.249,3.015,3.643,72.0,12.18,18.83
0.042,0.249,3.014,3.642,72.0,12.18,18.64
-0.122,0.207,3.014,3.642,72.0,12.18,18.63
-0.118,0.124,3.013,3.64,72.0,12.18,18.55
-0.125,0.186,3.013,3.639,72.0,12.18,18.43
-0.126,0.124,3.013,3.639,72.0,12.18,18.37
-0.122,0.249,3.013,3.639,72.0,12.18,18.32
-0.119,0.166,3.013,3.639,72.0,12.18,18.3
-0.111,0.186,3.013,3.639,72.0,12.18,18.29
-0.039,0.186,3.013,3.637,72.0,12.18,18.28
-0.108,0.207,3.013,3.637,72.0,12.18,18.28
-0.004,0.352,3.01,3.637,72.0,12.18,18.28
0.088,0.394,3.01,3.637,72.0,12.18,18.28
-0.042,0.186,3.01,3.637,72.0,12.18,18.29
0.042,0.269,3.01,3.637,72.0,12.18,18.31
0.184,0.166,3.01,3.637,72.0,12.18,18.33
0.177,0.207,3.01,3.635,72.0,12.18,18.34
-0.065,0.186,3.009,3.634,72.0,12.18,18.35
-0.073,0.207,3.008,3.634,72.0,12.18,18.34
-0.073,0.186,3.008,3.634,72.0,12.18,18.29
-0.079,0.228,3.008,3.634,72.0,12.18,18.25
-0.074,0.249,3.008,3.634,72.0,12.18,18.27
-0.069,0.186,3.008,3.633,72.0,12.18,18.38
-0.054,0.228,3.008,3.632,72.0,12.18,18.53
0.007,0.207,3.007,3.632,72.0,12.18,18.65
-0.059,0.186,3.006,3.632,72.0,12.18,18.85
0.22,0.331,3.006,3.632,72.0,12.18,19.09
0.008,0.394,3.006,3.632,72.0,12.18,19.34
0.033,0.186,3.006,3.63,72.0,12.18,19.61
0.125,0.207,3.004,3.629,72.0,12.18,19.88
0.275,0.145,3.003,3.629,72.0,12.18,20.18
0.2,0.186,3.003,3.629,72.0,12.18,20.47
-0.004,0.166,3.003,3.629,72.0,12.18,20.73
-0.006,0.269,3.003,3.629,62.0,12.18,20.96
-0.01,0.186,3.003,3.628,62.0,12.18,21.09
-0.016,0.145,3.002,3.627,62.0,12.18,21.26
-0.014,0.228,3.001,3.627,62.0,12.18,21.5
0.021,0.166,3.001,3.627,62.0,12.18,21.75
0.023,0.228,3.001,3.626,62.0,12.18,22.01
-0.028,0.166,3.001,3.625,62.0,12.18,22.22
0.34,0.394,3.001,3.625,62.0,12.18,22.44
-0.014,0.207,3.001,3.625,62.0,12.18,22.62
0.082,0.145,3.001,3.625,62.0,12.18,22.79
0.2,0.228,3.001,3.625,62.0,12.18,22.93
0.321,0.29,2.998,3.625,62.0,12.18,23.05
0.076,0.207,2.998,3.622,62.0,12.18,23.09
-0.014,0.186,2.998,3.623,68.0,12.18,23.1
-0.014,0.186,2.998,3.622,68.0,12.18,22.95
-0.03,0.166,2.997,3.622,68.0,12.18,22.8
-0.038,0.207,2.996,3.622,68.0,12.18,22.76
-0.047,0.186,2.996,3.622,68.0,12.18,22.68
-0.019,0.145,2.996,3.621,68.0,12.18,22.6
-0.019,0.249,2.996,3.62,68.0,12.18,22.51
-0.082,0.186,2.996,3.62,68.0,12.18,22.4
0.275,0.373,2.993,3.62,68.0,12.18,22.27
-0.083,0.249,2.993,3.62,68.0,12.18,22.1
0.006,0.207,2.993,3.62,68.0,12.18,21.85
0.108,0.186,2.993,3.62,66.0,12.18,21.54
0.223,0.166,2.993,3.618,66.0,12.18,21.18
-0.011,0.166,2.993,3.617,66.0,12.18,20.8
-0.111,0.186,2.993,3.617,66.0,12.18,20.43
-0.114,0.207,2.991,3.617,66.0,12.18,20.07
-0.131,0.145,2.991,3.617,66.0,12.18,19.7
-0.135,0.145,2.991,3.616,66.0,12.18,19.44
-0.139,0.186,2.991,3.615,66.0,12.18,19.23
-0.14,0.145,2.991,3.615,66.0,12.18,19.05
-0.118,0.166,2.991,3.615,66.0,12.18,18.92
-0.089,0.186,2.989,3.615,66.0,12.18,18.76
-0.152,0.186,2.991,3.615,66.0,12.18,18.65
0.229,0.352,2.988,3.615,66.0,12.18,18.58
-0.189,0.414,2.988,3.615,66.0,12.18,18.53
-0.056,0.186,2.988,3.613,66.0,12.18,18.49
0.046,0.186,2.988,3.612,61.0,12.18,18.46
0.193,0.166,2.988,3.612,61.0,12.18,18.44
0.034,0.207,2.988,3.612,61.0,12.18,18.41
-0.125,0.207,2.987,3.612,61.0,12.18,18.41
-0.119,0.249,2.986,3.612,61.0,12.18,18.37
-0.127,0.186,2.986,3.611,61.0,12.18,18.31
-0.132,0.145,2.986,3.61,61.0,12.18,18.27
-0.133,0.207,2.986,3.61,61.0,12.18,18.26
-0.133,0.186,2.986,3.61,61.0,12.18,18.26
-0.127,0.186,2.984,3.61,61.0,12.18,18.28
-0.067,0.166,2.983,3.607,61.0,12.18,18.26
-0.023,0.228,2.983,3.607,61.0,12.18,18.28
0.206,0.331,2.983,3.607,61.0,12.18,18.28
0.062,0.352,2.983,3.607,61.0,12.18,18.29
-0.07,0.228,2.983,3.607,61.0,12.18,18.3
0.013,0.207,2.983,3.606,60.0,12.18,18.33
0.16,0.207,2.982,3.606,60.0,12.18,18.36
0.164,0.207,2.982,3.607,60.0,12.18,18.36
-0.086,0.207,2.981,3.605,60.0,12.18,18.41
-0.096,0.249,2.981,3.605,60.0,12.18,18.5
-0.096,0.186,2.981,3.605,60.0,12.18,18.57
-0.097,0.166,2.981,3.605,60.0,12.18,18.65
-0.093,0.311,2.981,3.603,60.0,12.18,18.85
-0.089,0.186,2.978,3.602,60.0,12.18,19.09
-0.054,0.166,2.978,3.602,60.0,12.18,19.35
-0.032,0.166,2.978,3.602,60.0,12.18,19.56
-0.09,0.249,2.977,3.602,60.0,12.18,19.78
0.268,0.352,2.977,3.601,60.0,12.18,20.01
-0.082,0.269,2.977,3.601,60.0,12.18,20.23
0.022,0.145,2.976,3.6,60.0,12.18,20.46
0.135,0.207,2.976,3.6,60.0,12.18,20.71
0.267,0.186,2.976,3.6,60.0,12.18,20.98
0.056,0.269,2.976,3.6,60.0,12.18,21.24
-0.053,0.186,2.976,3.6,64.0,12.18,21.52
-0.056,0.207,2.973,3.6,64.0,12.18,21.69
-0.069,0.207,2.973,3.597,64.0,12.18,21.79
-0.074,0.145,2.973,3.597,64.0,12.18,21.94
-0.076,0.145,2.973,3.597,64.0,12.18,22.03
-0.015,0.269,2.973,3.596,64.0,12.18,22.02
-0.092,0.186,2.973,3.597,64.0,12.18,21.87
-0.006,0.186,2.973,3.595,64.0,12.18,21.65
0.109,0.394,2.971,3.595,64.0,12.18,21.43
-0.051,0.166,2.971,3.595,64.0,12.18,21.21
0.022,0.228,2.971,3.595,64.0,12.18,20.96
0.158,0.186,2.971,3.595,64.0,12.18,20.73
0.136,0.186,2.971,3.595,64.0,12.18,20.5
-0.098,0.207,2.971,3.595,68.0,12.18,20.27
-0.109,0.207,2.969,3.592,68.0,12.18,20.04
-0.116,0.207,2.971,3.592,68.0,12.18,19.73
-0.125,0.207,2.971,3.592,68.0,12.18,19.44
-0.124,0.207,2.969,3.592,68.0,12.18,19.24
-0.123,0.166,2.968,3.592,68.0,12.18,19.09
-0.06,0.166,2.968,3.592,68.0,12.18,18.98
-0.113,0.352,2.968,3.591,68.0,12.18,18.86
-0.131,0.228,2.968,3.591,68.0,12.18,18.75
0.163,0.394,2.966,3.591,68.0,12.18,18.67
-0.077,0.166,2.966,3.59,68.0,12.18,18.63
-0.004,0.207,2.966,3.59,68.0,12.18,18.62
0.13,0.207,2.966,3.59,65.0,12.18,18.61
0.19,0.207,2.966,3.59,65.0,12.18,18.58
-0.072,0.166,2.966,3.588,65.0,12.18,18.57
-0.095,0.249,2.966,3.587,65.0,12.18,18.55
-0.091,0.186,2.963,3.587,65.0,12.18,18.47
-0.1,0.145,2.964,3.587,65.0,12.18,18.4
-0.1,0.207,2.963,3.587,65.0,12.18,18.35
-0.099,0.104,2.963,3.587,65.0,12.18,18.33
-0.066,0.207,2.963,3.587,65.0,12.18,18.33
-0.05,0.145,2.963,3.585,65.0,12.17,18.31
-0.114,0.124,2.963,3.585,65.0,12.18,18.3
0.233,0.477,2.962,3.585,65.0,12.18,18.29
-0.115,0.228,2.961,3.585,65.0,12.18,18.29
-0.009,0.207,2.961,3.583,65.0,12.18,18.3
0.1,0.249,2.961,3.583,65.0,12.17,18.3
0.236,0.166,2.961,3.582,65.0,12.17,18.33
0.032,0.186,2.961,3.582,65.0,12.17,18.33
-0.085,0.166,2.961,3.582,64.0,12.17,18.33
-0.082,0.186,2.959,3.582,64.0,12.17,18.3
-0.09,0.186,2.958,3.58,64.0,12.18,18.24
-0.092,0.228,2.958,3.58,64.0,12.18,18.22
-0.091,0.186,2.958,3.58,64.0,12.18,18.22
-0.076,0.145,2.958,3.58,64.0,12.18,18.24
-0.02,0.207,2.958,3.58,64.0,12.18,18.29
-0.095,0.207,2.958,3.58,64.0,12.18,18.38
0.229,0.311,2.958,3.58,64.0,12.18,18.48
-0.083,0.29,2.957,3.578,64.0,12.18,18.6
-0.002,0.186,2.958,3.577,64.0,12.18,18.77
0.093,0.145,2.956,3.577,64.0,12.18,19.0
0.249,0.228,2.956,3.577,64.0,12.18,19.27
0.155,0.186,2.956,3.577,64.0,12.18,19.54
-0.039,0.186,2.956,3.577,64.0,12.18,19.81
-0.034,0.269,2.956,3.577,65.0,12.18,20.04
-0.037,0.207,2.954,3.577,65.0,12.18,20.18
-0.039,0.249,2.953,3.576,65.0,12.18,20.37
-0.026,0.166,2.953,3.575,65.0,12.18,20.62
0.025,0.228,2.953,3.575,65.0,12.17,20.89
-0.052,0.186,2.953,3.575,65.0,12.17,21.17
0.286,0.331,2.953,3.575,65.0,12.17,21.39
-0.065,0.311,2.952,3.575,65.0,12.18,21.62
0.019,0.186,2.951,3.575,65.0,12.17,21.8
0.109,0.186,2.951,3.572,65.0,12.17,21.85
0.242,0.207,2.951,3.572,65.0,12.17,21.8
0.112,0.207,2.951,3.572,65.0,12.18,21.61
-0.062,0.166,2.951,3.572,71.0,12.17,21.38
-0.071,0.29,2.948,3.572,71.0,12.18,21.09
-0.09,0.166,2.948,3.571,71.0,12.18,20.67
-0.101,0.207,2.948,3.57,71.0,12.18,20.31
-0.105,0.145,2.948,3.57,71.0,12.18,20.03
-0.04,0.186,2.948,3.57,71.0,12.18,19.78
-0.113,0.269,2.948,3.57,71.0,12.18,19.57
-0.078,0.269,2.948,3.57,71.0,12.18,19.36
0.133,0.477,2.948,3.567,71.0,12.17,19.19
-0.07,0.186,2.947,3.567,71.0,12.18,19.05
0.009,0.249,2.946,3.567,71.0,12.18,18.94
0.148,0.145,2.946,3.567,70.0,12.17,18.85
0.157,0.207,2.946,3.567,70.0,12.18,18.78
-0.088,0.269,2.946,3.567,70.0,12.17,18.71
-0.105,0.104,2.946,3.566,70.0,12.17,18.66
-0.107,0.207,2.946,3.565,70.0,12.18,18.56
-0.114,0.186,2.944,3.565,70.0,12.17,18.48
-0.112,0.207,2.943,3.565,70.0,12.18,18.43
-0.107,0.207,2.943,3.565,70.0,12.18,18.4
-0.036,0.29,2.943,3.565,70.0,12.18,18.39
-0.095,0.166,2.943,3.565,70.0,12.17,18.36
-0.084,0.311,2.943,3.563,70.0,12.18,18.34
0.171,0.414,2.943,3.565,70.0,12.18,18.33
-0.047,0.124,2.942,3.562,70.0,12.18,18.33
0.031,0.166,2.941,3.562,70.0,12.18,18.33
0.168,0.186,2.941,3.562,70.0,12.18,18.35
0.207,0.186,2.941,3.562,70.0,12.18,18.37
-0.048,0.186,2.941,3.561,70.0,12.18,18.39
