ECG,EMG,foot GSR,hand GSR,HR,RESP
-0.03,-0.0072,2.504,11.146,84.0,10.948
-0.026,-0.0033,2.512,11.136,84.0,10.958
-0.016,0.0019,2.514,11.127,84.0,10.982
-0.02,-0.003,2.519,11.116,84.0,11.002
-0.395,-0.002,2.522,11.101,84.0,11.026
0.007,-0.0109,2.524,11.086,84.0,11.064
0.059,-0.0091,2.527,11.073,84.0,11.09
0.047,-0.0022,2.531,11.057,84.0,11.118
-0.025,-0.0056,2.529,10.999,84.0,11.144
0.0,-0.0025,2.528,10.984,60.0,11.162
0.008,-0.0023,2.527,10.966,60.0,11.174
0.019,-0.0018,2.524,10.949,60.0,11.192
-0.371,0.0001,2.523,10.931,60.0,11.222
0.054,-0.0133,2.522,10.914,60.0,11.25
0.058,-0.0035,2.521,10.896,60.0,11.254
0.031,0.0003,2.517,10.878,60.0,11.212
0.011,-0.0168,2.516,10.862,60.0,10.964
0.016,-0.0096,2.513,10.847,60.0,10.97
0.01,-0.0092,2.511,10.832,60.0,10.978
0.004,0.0004,2.503,10.8,60.0,11.008
0.002,0.0095,2.501,10.785,60.0,11.034
-0.334,0.0071,2.498,10.769,60.0,11.058
0.004,-0.0076,2.494,10.754,44.0,11.062
0.094,-0.0089,2.489,10.74,44.0,11.066
0.113,-0.017,2.484,10.729,44.0,11.076
0.071,-0.01,2.48,10.715,44.0,11.078
0.139,-0.0078,2.475,10.704,44.0,11.058
0.191,-0.0034,2.472,10.691,44.0,11.036
0.195,-0.0039,2.471,10.678,44.0,11.008
0.14,-0.0051,2.469,10.667,44.0,10.978
0.15,0.0015,2.465,10.656,44.0,10.956
-0.171,-0.0135,2.461,10.644,44.0,10.938
0.135,-0.0094,2.457,10.634,44.0,10.946
0.174,-0.0071,2.452,10.624,44.0,10.942
0.177,-0.0012,2.446,10.609,44.0,10.93
0.126,-0.0069,2.442,10.603,44.0,10.89
0.136,-0.0037,2.439,10.598,44.0,10.838
0.133,-0.0032,2.435,10.596,44.0,10.78
0.13,-0.0026,2.431,10.594,44.0,10.642
0.12,-0.0082,2.43,10.593,44.0,10.598
-0.243,0.002,2.426,10.594,44.0,10.546
0.159,-0.0063,2.424,10.595,44.0,10.524
0.202,-0.0108,2.421,10.598,44.0,10.526
0.211,-0.0039,2.419,10.601,44.0,10.544
0.13,-0.004,2.416,10.605,44.0,10.57
0.135,-0.0057,2.414,10.608,44.0,10.614
0.127,-0.0106,2.411,10.613,44.0,10.67
0.108,-0.0044,2.41,10.616,44.0,10.726
0.104,-0.0056,2.409,10.62,44.0,10.764
0.098,-0.0004,2.406,10.621,44.0,10.816
-0.048,0.0019,2.404,10.623,44.0,10.892
-0.15,-0.0121,2.401,10.625,44.0,10.96
0.161,-0.0033,2.401,10.625,44.0,10.998
0.171,-0.0022,2.4,10.625,44.0,11.008
0.101,-0.0108,2.399,10.625,44.0,11.032
0.106,-0.0165,2.397,10.625,44.0,11.088
0.12,0.0083,2.396,10.626,44.0,11.164
0.085,-0.0109,2.396,10.625,44.0,11.242
0.062,-0.0099,2.392,10.627,44.0,11.328
0.052,-0.0054,2.391,10.63,44.0,11.394
0.077,-0.0022,2.391,10.626,44.0,11.442
-0.324,-0.0007,2.391,10.623,44.0,11.464
0.121,-0.0099,2.391,10.621,88.0,11.462
0.1,-0.0018,2.39,10.618,88.0,11.462
0.069,-0.0008,2.388,10.618,88.0,11.45
0.044,0.0022,2.385,10.615,88.0,11.422
0.015,-0.0039,2.384,10.615,88.0,11.372
0.025,-0.0062,2.382,10.611,88.0,11.312
0.1,0.0059,2.382,10.608,88.0,0.0
0.057,-0.0054,2.38,10.603,88.0,0.0
-0.115,0.0072,2.378,10.6,88.0,11.146
-0.164,-0.0055,2.377,10.598,88.0,11.12
0.11,-0.008,2.375,10.594,88.0,11.102
0.074,0.0021,2.374,10.588,88.0,11.092
-0.06,-0.0119,2.374,10.585,88.0,11.102
-0.04,-0.0127,2.372,10.585,88.0,11.11
-0.02,-0.0075,2.369,10.581,88.0,11.108
0.0,-0.0112,2.368,10.575,88.0,11.096
-0.006,-0.0063,2.367,10.567,88.0,11.088
-0.058,-0.0069,2.365,10.56,88.0,11.09
-0.063,-0.0061,2.363,10.556,88.0,11.104
-0.417,0.0076,2.362,10.551,88.0,11.108
-0.059,-0.0093,2.36,10.545,88.0,11.102
-0.077,-0.0049,2.358,10.539,88.0,11.092
-0.14,-0.0007,2.357,10.536,88.0,11.088
-0.124,-0.012,2.355,10.534,88.0,11.1
-0.116,-0.0059,2.354,10.529,88.0,11.13
-0.112,-0.005,2.352,10.525,88.0,11.134
-0.115,-0.0094,2.349,10.526,88.0,11.134
-0.121,0.0062,2.349,10.529,88.0,11.156
-0.412,-0.0019,2.347,10.534,88.0,11.174
-0.029,-0.0261,2.344,10.542,88.0,11.202
0.001,0.0216,2.344,10.556,88.0,11.234
-0.054,-0.0071,2.344,10.571,88.0,11.262
-0.048,-0.0188,2.343,10.591,88.0,11.268
-0.048,-0.008,2.34,10.612,88.0,11.264
-0.05,0.003,2.338,10.637,88.0,11.264
-0.038,-0.007,2.337,10.663,88.0,11.268
-0.012,-0.0174,2.337,10.691,88.0,11.274
-0.333,0.003,2.337,10.718,88.0,11.264
0.001,-0.0087,2.337,10.742,88.0,11.246
0.102,0.01,2.337,10.76,88.0,11.222
0.077,0.0129,2.337,10.782,88.0,11.192
-0.006,-0.0064,2.337,10.801,88.0,11.154
0.002,-0.0182,2.338,10.821,33.0,11.12
0.019,-0.0084,2.339,10.837,33.0,11.098
0.033,-0.0044,2.34,10.851,33.0,11.08
0.06,0.0098,2.342,10.862,33.0,11.062
0.075,0.0074,2.345,10.87,33.0,11.048
-0.301,0.0057,2.35,10.888,33.0,11.092
0.173,0.0037,2.353,10.893,33.0,11.162
0.168,0.0049,2.357,10.897,33.0,11.222
0.142,-0.011,2.36,10.901,33.0,11.224
0.225,-0.0266,2.363,10.903,33.0,11.246
0.212,-0.0072,2.365,10.902,33.0,11.318
0.149,0.0059,2.37,10.902,33.0,11.366
0.129,0.0117,2.373,10.903,33.0,11.352
0.18,0.0304,2.375,10.898,33.0,11.336
-0.176,0.0319,2.38,10.886,33.0,11.34
0.125,0.0426,2.382,10.877,33.0,11.362
0.197,-0.0061,2.385,10.872,33.0,11.416
0.212,-0.0403,2.388,10.867,33.0,11.496
0.158,-0.0301,2.391,10.863,33.0,11.576
0.17,-0.0093,2.391,10.866,33.0,11.61
0.196,-0.0143,2.394,10.864,33.0,11.6
0.183,-0.0225,2.394,10.861,33.0,11.528
0.143,-0.0252,2.396,10.861,33.0,11.432
0.11,-0.0231,2.396,10.859,33.0,11.342
-0.299,-0.0238,2.396,10.85,33.0,11.356
0.159,-0.0434,2.395,10.84,33.0,11.5
0.213,-0.0221,2.394,10.827,33.0,11.612
0.188,0.0045,2.394,10.806,33.0,11.496
0.149,0.0034,2.392,10.797,33.0,11.394
0.157,0.0035,2.391,10.8,33.0,11.336
0.14,-0.004,2.388,10.791,33.0,11.32
0.122,-0.007,2.387,10.782,33.0,11.346
0.107,0.0051,2.384,10.775,33.0,11.386
0.116,0.0065,2.383,10.769,33.0,11.464
-0.265,-0.0026,2.382,10.763,33.0,11.554
0.173,-0.0042,2.38,10.758,53.0,11.472
0.17,0.0012,2.379,10.753,53.0,11.296
0.113,0.0042,2.379,10.749,53.0,11.146
0.125,-0.0026,2.377,10.747,53.0,11.074
0.126,-0.0012,2.377,10.745,53.0,10.992
0.1,-0.0052,2.374,10.742,53.0,10.936
0.1,-0.0052,2.374,10.742,53.0,10.966
0.111,-0.0021,2.372,10.737,53.0,11.048
0.13,-0.0005,2.37,10.734,53.0,11.034
-0.343,-0.0056,2.369,10.734,53.0,10.998
0.159,-0.0082,2.367,10.733,53.0,10.924
0.169,-0.0078,2.367,10.729,53.0,10.816
0.121,-0.0036,2.367,10.727,53.0,10.742
0.112,-0.017,2.365,10.725,53.0,10.692
0.119,-0.0091,2.363,10.723,53.0,10.642
0.107,-0.0031,2.362,10.715,53.0,10.62
0.09,-0.004,2.359,10.713,53.0,10.626
0.088,0.0013,2.359,10.709,53.0,10.628
0.101,0.0011,2.357,10.705,53.0,10.646
0.128,0.0009,2.357,10.702,53.0,10.66
-0.309,0.0012,2.357,10.698,53.0,10.668
0.181,0.0002,2.357,10.695,76.0,10.65
0.168,-0.0024,2.358,10.692,76.0,10.622
0.113,-0.0014,2.36,10.688,76.0,10.582
0.103,-0.016,2.363,10.683,76.0,10.558
0.117,-0.015,2.363,10.678,76.0,10.534
0.098,-0.017,2.367,10.676,76.0,10.51
0.089,-0.0205,2.369,10.67,76.0,10.49
0.065,-0.0192,2.369,10.663,76.0,10.47
0.032,-0.0093,2.372,10.658,76.0,10.456
0.068,0.0,2.373,10.655,76.0,10.432
-0.431,0.001,2.375,10.648,76.0,10.41
0.102,0.0035,2.377,10.643,76.0,10.394
0.116,0.0046,2.374,10.638,76.0,10.388
0.084,0.0048,2.374,10.635,76.0,10.392
0.043,-0.0135,2.372,10.631,76.0,10.436
0.065,-0.014,2.372,10.628,80.0,10.436
0.064,-0.0098,2.372,10.618,80.0,10.436
0.042,-0.0117,2.372,10.616,80.0,10.436
0.025,-0.0087,2.373,10.611,80.0,10.438
0.038,-0.0035,2.374,10.606,80.0,10.444
-0.459,-0.0006,2.374,10.601,80.0,10.446
0.11,-0.0023,2.372,10.596,80.0,10.454
0.137,-0.0014,2.369,10.594,80.0,10.46
0.14,0.0014,2.368,10.59,80.0,10.468
0.063,-0.0105,2.365,10.586,80.0,10.47
0.076,-0.01,2.364,10.583,80.0,10.458
0.073,-0.0087,2.363,10.58,80.0,10.428
0.069,-0.0025,2.362,10.576,80.0,10.41
0.071,-0.0119,2.362,10.574,80.0,10.414
0.075,-0.0102,2.365,10.57,80.0,10.446
0.063,-0.0094,2.37,10.57,80.0,10.502
0.108,0.001,2.372,10.569,80.0,10.558
-0.408,-0.0041,2.37,10.569,80.0,10.602
0.143,-0.0034,2.369,10.573,56.0,10.614
0.156,-0.0013,2.37,10.576,56.0,10.604
0.109,-0.0023,2.372,10.58,56.0,10.566
0.084,-0.0093,2.373,10.587,56.0,10.524
0.087,-0.0056,2.374,10.595,56.0,10.478
0.094,-0.0008,2.377,10.604,56.0,10.446
0.093,-0.0032,2.377,10.614,56.0,10.438
0.111,0.0019,2.378,10.624,56.0,10.456
0.115,-0.0054,2.379,10.634,56.0,10.49
0.091,-0.0082,2.382,10.647,56.0,10.502
0.107,-0.0061,2.384,10.658,56.0,10.476
-0.339,-0.0099,2.387,10.668,56.0,10.414
0.101,-0.0036,2.389,10.678,77.0,10.346
0.106,0.004,2.391,10.687,77.0,10.294
0.035,-0.0023,2.395,10.704,77.0,10.282
0.013,-0.0107,2.397,10.713,77.0,10.29
0.005,-0.0141,2.4,10.719,77.0,10.302
0.0,-0.0072,2.401,10.725,77.0,10.302
0.003,0.0028,2.402,10.73,77.0,10.294
-0.002,0.0006,2.405,10.733,77.0,10.284
-0.005,-0.0056,2.406,10.734,77.0,10.28
-0.446,-0.0043,2.407,10.738,77.0,10.302
0.046,-0.001,2.41,10.739,77.0,10.33
0.066,0.0,2.411,10.74,77.0,10.36
0.065,0.0033,2.414,10.739,77.0,10.388
-0.008,-0.0069,2.414,10.739,106.0,10.414
0.002,-0.0116,2.414,10.739,106.0,10.426
0.003,-0.0027,2.414,10.739,106.0,10.458
-0.004,-0.0058,2.416,10.737,106.0,10.49
-0.008,-0.0045,2.416,10.733,106.0,10.526
-0.011,-0.0036,2.417,10.73,106.0,10.548
-0.013,-0.0041,2.419,10.728,106.0,10.578
-0.41,-0.002,2.419,10.723,106.0,10.692
0.037,-0.0086,2.419,10.719,106.0,10.812
0.069,-0.0019,2.419,10.715,106.0,10.888
0.061,-0.0025,2.419,10.71,106.0,10.93
-0.017,-0.012,2.419,10.707,83.0,10.948
0.0,-0.0095,2.419,10.702,83.0,10.974
0.0,-0.001,2.419,10.695,83.0,10.97
-0.006,-0.0035,2.419,10.69,83.0,10.914
-0.012,-0.0016,2.417,10.683,83.0,10.92
-0.02,-0.0048,2.417,10.678,83.0,10.942
-0.025,-0.0003,2.416,10.673,83.0,10.816
-0.418,-0.0042,2.416,10.667,83.0,10.518
0.017,-0.0063,2.415,10.662,83.0,10.212
0.031,-0.0005,2.407,10.645,83.0,9.952
-0.004,-0.0092,2.398,10.641,85.0,9.83
-0.016,-0.0047,2.394,10.636,85.0,9.772
-0.02,-0.0068,2.391,10.631,85.0,9.736
-0.008,-0.0056,2.385,10.626,85.0,9.762
-0.014,-0.0043,2.383,10.621,85.0,9.818
0.021,-0.0031,2.375,10.615,85.0,9.892
-0.387,-0.0078,2.368,10.611,85.0,9.94
0.061,-0.0023,2.363,10.606,85.0,9.962
0.059,0.0,2.358,10.601,85.0,9.976
0.007,-0.0046,2.354,10.597,85.0,10.012
0.006,-0.0117,2.352,10.594,87.0,10.078
0.029,-0.0026,2.349,10.59,87.0,10.152
0.028,-0.005,2.347,10.586,87.0,10.238
0.021,-0.0077,2.345,10.581,87.0,10.344
0.013,-0.0058,2.344,10.576,87.0,10.454
0.022,-0.0033,2.344,10.57,87.0,10.534
-0.316,0.0031,2.342,10.56,87.0,10.568
0.064,0.0014,2.342,10.522,87.0,10.546
0.024,-0.0024,2.342,10.51,87.0,10.472
-0.005,-0.0125,2.342,10.508,90.0,10.366
0.025,-0.0154,2.342,10.528,90.0,10.292
0.033,0.0019,2.342,10.54,90.0,10.278
0.034,0.0167,2.344,10.54,90.0,10.302
0.026,0.0024,2.344,10.538,90.0,10.36
0.052,-0.0042,2.34,10.534,90.0,10.404
-0.369,-0.0033,2.338,10.529,90.0,10.432
0.083,0.0041,2.337,10.526,90.0,10.432
0.11,-0.0174,2.337,10.523,90.0,10.382
0.069,-0.0187,2.337,10.518,90.0,10.296
0.03,-0.0249,2.339,10.514,90.0,0.0
0.02,-0.005,2.339,10.51,90.0,0.0
0.02,-0.0125,2.339,10.508,90.0,10.16
0.023,0.0106,2.339,10.504,95.0,10.162
0.009,0.0579,2.338,10.499,95.0,10.18
0.031,-0.0546,2.337,10.497,95.0,10.2
-0.403,-0.0246,2.334,10.492,95.0,10.218
0.06,-0.0026,2.333,10.487,95.0,10.228
0.099,0.004,2.332,10.486,95.0,10.208
0.03,-0.0059,2.33,10.487,95.0,10.186
0.0,-0.0176,2.329,10.493,93.0,10.156
0.011,-0.0097,2.328,10.506,93.0,10.14
0.008,-0.0131,2.325,10.523,93.0,10.126
0.002,-0.0025,2.323,10.541,93.0,10.116
-0.013,-0.0039,2.322,10.567,93.0,10.096
-0.269,-0.0047,2.322,10.601,93.0,10.094
-0.132,-0.0115,2.317,10.734,93.0,10.102
0.005,-0.0088,2.317,10.785,93.0,10.116
0.016,-0.0099,2.317,10.835,95.0,10.118
0.061,0.0321,2.317,10.887,95.0,10.114
0.132,-0.0362,2.318,10.951,95.0,10.094
-0.012,-0.0125,2.319,11.034,95.0,10.09
-0.021,-0.0274,2.322,11.113,95.0,10.094
-0.389,-0.0004,2.325,11.181,95.0,10.09
0.111,0.0021,2.331,11.242,95.0,10.106
0.202,0.0115,2.336,11.293,95.0,10.112
0.22,0.0089,2.343,11.343,95.0,10.116
0.009,-0.0038,2.349,11.384,95.0,10.124
0.014,-0.0042,2.355,11.421,95.0,10.128
-0.034,0.0003,2.363,11.454,95.0,10.13
-0.023,0.0088,2.368,11.476,95.0,10.134
0.041,-0.0065,2.372,11.491,95.0,10.146
0.149,-0.02,2.373,11.499,95.0,10.158
-0.211,-0.0005,2.379,11.507,95.0,10.174
0.093,0.0115,2.386,11.521,95.0,10.162
0.12,0.0078,2.392,11.541,95.0,10.148
0.136,-0.0168,2.398,11.551,95.0,10.14
0.128,-0.021,2.412,11.557,95.0,10.148
0.142,-0.0117,2.418,11.557,95.0,10.158
0.171,-0.0079,2.422,11.555,95.0,10.164
0.182,-0.0042,2.43,11.552,95.0,10.172
-0.038,0.0024,2.435,11.544,95.0,10.18
0.104,-0.0096,2.442,11.537,137.0,10.19
0.258,-0.0081,2.45,11.529,137.0,10.192
0.246,-0.0067,2.456,11.519,137.0,10.212
0.185,-0.009,2.462,11.509,137.0,10.244
0.223,-0.0091,2.47,11.498,137.0,10.312
0.221,-0.0069,2.475,11.483,137.0,10.392
0.221,0.0048,2.482,11.47,137.0,10.462
0.196,-0.0117,2.488,11.454,137.0,10.528
0.171,0.0005,2.493,11.438,137.0,10.614
-0.22,-0.0022,2.497,11.421,137.0,10.704
0.186,-0.0035,2.502,11.399,137.0,10.79
0.179,0.0006,2.507,11.39,137.0,10.866
0.093,-0.0061,2.511,11.384,137.0,10.926
0.134,-0.0205,2.514,11.377,137.0,10.982
0.123,-0.0217,2.518,11.361,137.0,11.024
0.111,-0.0089,2.521,11.341,137.0,11.058
0.031,-0.0041,2.522,11.309,137.0,11.082
-0.324,-0.0078,2.522,11.295,97.0,11.104
0.108,-0.0045,2.523,11.285,97.0,11.114
0.097,-0.0133,2.521,11.26,97.0,11.108
0.032,-0.0075,2.518,11.25,97.0,11.082
0.036,-0.0113,2.517,11.194,112.0,11.066
0.038,-0.0038,2.516,11.127,112.0,11.118
0.038,0.0031,2.514,11.09,112.0,11.2
0.033,-0.005,2.512,11.076,112.0,11.268
0.023,-0.0107,2.509,11.073,112.0,11.29
-0.394,-0.005,2.506,11.076,112.0,11.288
0.049,-0.0074,2.502,11.08,112.0,11.288
0.105,0.0004,2.499,11.08,112.0,11.29
0.081,0.0004,2.497,11.078,112.0,11.29
0.048,-0.0064,2.496,11.077,112.0,11.31
0.09,-0.0081,2.493,11.071,151.0,11.336
0.077,-0.0198,2.491,11.067,151.0,11.364
0.096,-0.0059,2.488,11.066,151.0,11.356
0.115,-0.0004,2.486,11.07,151.0,11.324
0.124,-0.0081,2.484,11.076,151.0,11.254
0.139,-0.0041,2.482,11.073,151.0,11.134
-0.271,0.0065,2.481,11.067,151.0,11.008
0.187,0.0091,2.481,11.074,109.0,10.924
0.196,0.005,2.479,11.083,109.0,10.898
0.152,0.0069,2.477,11.096,109.0,10.904
0.125,-0.0137,2.475,11.116,109.0,10.946
0.139,-0.0131,2.472,11.143,109.0,11.144
0.139,-0.0018,2.471,11.183,109.0,11.142
0.133,0.0008,2.469,11.234,109.0,11.152
0.118,-0.0008,2.466,11.295,109.0,11.148
0.101,0.0,2.465,11.364,109.0,11.156
0.091,-0.0018,2.462,11.604,109.0,11.162
0.007,-0.0086,2.461,11.69,75.0,11.166
0.102,-0.0008,2.461,11.771,75.0,11.158
0.088,0.0029,2.461,11.85,75.0,11.134
0.017,-0.0042,2.462,11.923,75.0,11.108
0.042,-0.0054,2.466,11.993,75.0,11.098
0.03,-0.0106,2.47,12.054,75.0,11.104
0.019,-0.01,2.476,12.106,75.0,11.136
0.008,-0.0112,2.482,12.152,75.0,11.156
-0.004,-0.0122,2.49,12.191,75.0,11.158
-0.007,0.0015,2.5,12.223,75.0,11.132
-0.004,-0.0074,2.51,12.249,75.0,11.122
-0.025,0.0006,2.523,12.273,75.0,11.122
0.005,0.0026,2.537,12.289,75.0,11.126
-0.45,-0.004,2.552,12.3,75.0,11.13
0.056,-0.0029,2.566,12.306,75.0,11.14
0.066,0.0032,2.584,12.311,75.0,11.148
0.018,0.0085,2.6,12.315,75.0,11.148
0.038,0.0056,2.616,12.314,84.0,11.148
0.037,-0.0156,2.631,12.312,84.0,11.14
0.025,-0.0102,2.647,12.306,84.0,11.136
0.018,-0.0058,2.662,12.299,84.0,11.12
0.015,-0.0014,2.674,12.286,84.0,11.09
0.008,-0.0004,2.687,12.27,84.0,11.068
0.007,-0.0022,2.698,12.254,84.0,11.062
-0.004,-0.0118,2.708,12.236,84.0,11.058
-0.218,-0.0062,2.717,12.218,84.0,11.056
-0.168,-0.0148,2.726,12.198,84.0,11.044
0.1,-0.0086,2.732,12.177,84.0,11.036
0.116,0.0007,2.738,12.156,84.0,11.026
0.045,-0.007,2.743,12.132,84.0,11.022
0.066,-0.0101,2.75,12.11,72.0,11.012
0.076,-0.0043,2.753,12.088,72.0,10.99
0.072,-0.0061,2.754,12.065,72.0,10.956
0.066,-0.0021,2.757,12.042,72.0,10.926
0.067,-0.0057,2.757,12.022,72.0,10.892
0.07,-0.0107,2.757,12.003,72.0,10.834
0.072,-0.0027,2.755,11.986,72.0,10.772
0.077,-0.0071,2.755,11.972,72.0,10.734
-0.377,-0.0068,2.753,11.959,72.0,10.724
0.134,-0.0027,2.749,11.947,72.0,10.71
0.169,-0.0071,2.748,11.937,72.0,10.694
0.158,0.0025,2.745,11.927,72.0,10.658
0.093,-0.0061,2.738,11.907,72.0,10.598
0.129,-0.0107,2.735,11.896,72.0,10.534
0.119,-0.0025,2.732,11.885,72.0,10.504
0.111,-0.0009,2.73,11.872,72.0,10.494
0.092,0.0012,2.728,11.86,72.0,10.506
0.066,0.0036,2.727,11.847,72.0,10.524
0.042,-0.0093,2.725,11.834,72.0,10.572
-0.012,0.0049,2.725,11.822,73.0,10.656
-0.343,-0.0325,2.723,11.808,73.0,10.76
0.042,-0.0079,2.722,11.795,73.0,10.812
0.033,-0.0125,2.722,11.784,73.0,10.816
-0.016,-0.0066,2.721,11.772,73.0,10.838
-0.01,-0.0135,2.722,11.758,73.0,10.902
-0.009,-0.0094,2.72,11.746,73.0,10.99
-0.018,-0.0129,2.718,11.732,73.0,11.098
-0.045,-0.0088,2.717,11.718,73.0,11.088
0.032,-0.0119,2.717,11.705,73.0,11.056
-0.029,-0.0029,2.715,11.692,73.0,11.024
0.11,0.0007,2.712,11.678,73.0,11.0
0.629,-0.0031,2.711,11.665,73.0,11.004
-0.431,-0.0065,2.708,11.652,73.0,11.012
0.448,-0.0072,2.706,11.639,73.0,11.036
-0.072,-0.0098,2.702,11.625,73.0,11.064
-0.153,-0.0004,2.7,11.613,73.0,11.09
-0.211,-0.0067,2.696,11.6,73.0,11.118
-0.12,-0.0076,2.693,11.588,73.0,11.146
-0.012,-0.0044,2.69,11.575,73.0,11.166
0.178,-0.005,2.686,11.562,73.0,11.176
0.432,-0.0052,2.673,11.527,73.0,11.186
1.191,-0.0073,2.668,11.516,73.0,11.19
0.785,-0.0031,2.663,11.504,73.0,11.202
1.404,-0.0039,2.658,11.493,71.0,11.21
1.277,-0.004,2.654,11.482,71.0,11.218
1.187,0.0013,2.651,11.472,71.0,11.214
1.113,-0.0086,2.645,11.464,71.0,11.21
0.918,-0.0065,2.641,11.463,71.0,11.166
0.819,-0.0112,2.629,11.455,71.0,11.12
0.662,0.0018,2.624,11.456,71.0,11.098
0.616,0.0,2.62,11.456,71.0,11.09
0.58,-0.0074,2.616,11.458,71.0,11.078
0.53,-0.0088,2.611,11.46,71.0,11.076
0.147,-0.0042,2.604,11.461,71.0,11.08
0.673,-0.008,2.601,11.466,71.0,11.092
0.546,-0.008,2.595,11.476,71.0,11.12
0.472,-0.0056,2.589,11.488,71.0,11.134
0.359,-0.0105,2.586,11.503,71.0,11.12
0.344,-0.0163,2.581,11.518,71.0,11.088
0.328,-0.0109,2.578,11.533,71.0,11.036
0.328,-0.0028,2.572,11.546,71.0,10.964
0.278,-0.014,2.569,11.558,71.0,10.912
0.284,-0.0002,2.566,11.57,71.0,10.894
0.31,0.0151,2.562,11.578,71.0,10.908
0.421,0.0066,2.558,11.584,71.0,10.936
-0.138,0.0145,2.554,11.59,71.0,10.978
0.353,0.0168,2.551,11.591,71.0,11.032
0.269,0.0057,2.548,11.579,71.0,11.076
0.165,0.0153,2.544,11.554,71.0,11.086
0.136,-0.0318,2.542,11.525,71.0,11.056
0.112,-0.0086,2.539,11.498,71.0,11.014
0.089,-0.0087,2.536,11.474,71.0,11.008
0.067,-0.006,2.532,11.45,71.0,11.022
0.042,-0.0093,2.531,11.43,71.0,11.024
0.013,-0.0171,2.527,11.417,71.0,11.018
0.029,-0.0069,2.526,11.404,71.0,11.008
-0.395,-0.01,2.522,11.39,71.0,11.012
0.019,-0.0108,2.521,11.374,71.0,11.03
0.009,-0.0002,2.518,11.357,71.0,11.052
-0.05,0.0093,2.512,11.328,71.0,11.068
-0.034,-0.0108,2.512,11.317,71.0,11.074
-0.042,-0.0013,2.508,11.303,71.0,11.048
-0.072,-0.0135,2.504,11.292,71.0,11.01
-0.093,-0.0056,2.503,11.281,71.0,10.964
-0.086,-0.0027,2.501,11.271,71.0,10.956
-0.443,-0.0086,2.498,11.261,71.0,10.948
-0.045,0.0,2.497,11.251,71.0,10.93
-0.044,-0.0205,2.492,11.24,71.0,10.91
-0.131,-0.0096,2.489,11.235,71.0,10.944
-0.076,-0.0148,2.487,11.235,71.0,10.92
-0.086,-0.0156,2.484,11.231,71.0,10.902
-0.11,-0.0091,2.482,11.229,71.0,10.894
-0.094,0.0057,2.481,11.225,71.0,10.892
-0.096,0.0101,2.477,11.221,71.0,10.894
-0.586,-0.0092,2.476,11.221,71.0,10.9
-0.098,0.0008,2.472,11.216,71.0,10.908
-0.098,-0.0006,2.469,11.215,71.0,10.914
-0.098,-0.0006,2.469,11.215,71.0,10.916
-0.185,-0.0092,2.464,11.222,71.0,10.916
-0.181,-0.0088,2.461,11.226,71.0,10.916
-0.204,-0.0017,2.459,11.227,71.0,10.92
-0.217,-0.0225,2.456,11.229,71.0,10.92
-0.222,-0.0203,2.452,11.229,71.0,10.922
-0.738,0.0042,2.452,11.23,71.0,10.922
-0.191,-0.0064,2.449,11.231,71.0,10.912
-0.168,-0.0002,2.446,11.235,71.0,10.894
-0.162,-0.0004,2.445,11.24,71.0,10.866
-0.262,-0.0124,2.442,11.247,71.0,10.812
-0.256,-0.0078,2.44,11.251,71.0,10.728
-0.266,-0.0005,2.439,11.25,71.0,10.646
-0.273,-0.0027,2.436,11.246,71.0,10.604
-0.284,-0.0003,2.431,11.242,71.0,10.604
-0.284,-0.0003,2.431,11.242,71.0,10.59
-0.796,-0.0093,2.426,11.253,71.0,10.548
-0.218,0.002,2.425,11.262,71.0,10.51
-0.235,-0.002,2.424,11.276,71.0,10.49
-0.301,-0.0059,2.421,11.288,71.0,10.484
-0.273,-0.0076,2.42,11.303,71.0,10.484
-0.276,-0.0035,2.417,11.317,71.0,10.476
-0.277,-0.0104,2.416,11.33,71.0,10.484
-0.28,0.0036,2.414,11.339,71.0,10.522
-0.284,-0.0019,2.412,11.348,71.0,10.568
-0.753,-0.0108,2.411,11.354,71.0,10.614
-0.238,-0.0045,2.411,11.359,71.0,10.638
-0.199,0.0007,2.41,11.364,71.0,10.664
-0.173,-0.0144,2.409,11.367,71.0,10.67
-0.252,-0.0035,2.406,11.372,71.0,10.684
-0.237,-0.0102,2.406,11.374,71.0,10.702
-0.212,-0.0041,2.404,11.376,71.0,10.736
-0.201,0.0016,2.404,11.376,71.0,10.782
-0.203,-0.0042,2.402,11.376,71.0,10.824
-0.205,-0.0189,2.401,11.373,71.0,10.842
-0.679,-0.0132,2.401,11.368,71.0,10.836
-0.148,0.0082,2.399,11.358,71.0,10.82
-0.109,0.0015,2.399,11.35,71.0,10.78
-0.101,-0.0051,2.397,11.344,71.0,10.7
-0.145,-0.0052,2.396,11.335,71.0,10.61
-0.159,-0.0136,2.396,11.328,71.0,10.562
-0.162,-0.0043,2.395,11.32,71.0,10.57
-0.159,-0.0012,2.394,11.314,71.0,10.612
-0.159,-0.0042,2.391,11.309,71.0,10.668
-0.161,-0.009,2.391,11.305,71.0,10.712
-0.339,-0.0004,2.39,11.3,71.0,10.722
-0.256,-0.0069,2.389,11.295,71.0,10.688
-0.049,-0.0011,2.385,11.28,71.0,10.634
-0.043,-0.0101,2.384,11.276,71.0,10.568
-0.021,-0.0071,2.383,11.271,71.0,10.512
-0.015,0.0004,2.382,11.267,71.0,10.476
0.008,-0.001,2.379,11.262,71.0,10.476
0.007,-0.0032,2.377,11.26,71.0,10.484
-0.375,-0.0003,2.377,11.253,71.0,10.496
0.033,-0.0059,2.375,11.25,71.0,10.504
0.046,-0.0002,2.373,11.246,71.0,10.492
-0.001,-0.0003,2.372,11.242,71.0,10.48
-0.039,-0.0114,2.372,11.24,71.0,10.476
0.057,-0.0179,2.369,11.237,71.0,10.492
0.024,-0.0037,2.368,11.235,71.0,10.532
-0.035,-0.0048,2.367,11.232,71.0,10.616
-0.06,-0.0103,2.365,11.23,71.0,10.7
-0.081,-0.0029,2.363,11.227,71.0,10.734
-0.052,-0.0083,2.362,11.225,71.0,10.724
-0.582,-0.0033,2.362,11.221,71.0,10.678
-0.044,-0.0049,2.362,11.22,71.0,10.584
-0.025,0.0048,2.359,11.216,71.0,10.494
-0.061,-0.0082,2.358,11.214,181.0,10.424
-0.124,-0.0031,2.357,11.212,181.0,10.388
-0.131,-0.0144,2.357,11.212,181.0,10.414
-0.141,-0.0041,2.354,11.21,181.0,10.506
-0.156,-0.0103,2.354,11.208,181.0,10.602
-0.17,0.0027,2.352,11.205,181.0,10.666
-0.185,-0.0016,2.352,11.203,181.0,10.714
-0.183,0.0,2.352,11.202,181.0,10.764
-0.672,-0.0051,2.349,11.198,181.0,10.812
-0.138,-0.0053,2.349,11.195,181.0,10.842
-0.113,-0.0044,2.344,11.184,181.0,10.858
-0.13,-0.0082,2.342,11.182,181.0,10.866
-0.092,-0.0093,2.342,11.179,181.0,10.864
-0.106,-0.0022,2.342,11.175,181.0,10.846
-0.078,-0.0035,2.339,11.173,181.0,10.836
-0.121,-0.0018,2.337,11.17,181.0,10.83
-0.426,-0.0102,2.337,11.168,181.0,10.772
0.003,-0.0021,2.334,11.164,181.0,10.742
0.0,-0.0014,2.334,11.16,181.0,10.746
-0.073,-0.009,2.334,11.158,181.0,10.782
0.004,-0.0184,2.332,11.154,181.0,10.794
0.024,-0.0081,2.332,11.15,181.0,10.798
0.044,-0.0172,2.329,11.147,181.0,10.842
0.006,-0.0074,2.328,11.149,181.0,11.004
-0.003,-0.001,2.327,11.165,181.0,11.274
-0.025,-0.0026,2.327,11.18,181.0,11.612
-0.037,0.0176,2.324,11.2,181.0,11.96
-0.262,-0.0042,2.323,11.216,181.0,12.176
-0.26,-0.0076,2.322,11.234,181.0,12.27
-0.018,-0.0354,2.322,11.247,181.0,12.364
-0.031,0.0,2.322,11.256,181.0,12.504
-0.059,-0.0134,2.319,11.265,181.0,12.668
-0.072,0.0116,2.317,11.271,181.0,12.768
-0.097,0.0012,2.318,11.275,181.0,12.732
-0.073,-0.0097,2.315,11.274,181.0,12.522
-0.111,-0.0161,2.314,11.277,181.0,12.308
-0.263,-0.0197,2.314,11.279,181.0,12.11
-0.28,0.0159,2.312,11.279,132.0,11.95
-0.239,0.0092,2.312,11.28,132.0,11.832
-0.493,0.0058,2.309,11.277,132.0,11.744
-0.071,-0.0178,2.307,11.257,132.0,11.672
-0.071,-0.0178,2.307,11.257,132.0,11.598
-0.031,-0.0039,2.304,11.251,132.0,11.486
-0.095,0.0031,2.303,11.247,132.0,11.314
-0.096,0.0234,2.302,11.247,132.0,11.11
-0.088,0.0257,2.302,11.252,132.0,10.908
-0.077,0.0238,2.3,11.256,132.0,10.726
-0.073,0.0195,2.3,11.253,132.0,10.558
-0.08,-0.0031,2.297,11.247,132.0,10.418
-0.041,-0.0014,2.297,11.238,132.0,10.328
-0.578,-0.013,2.297,11.231,132.0,10.296
0.002,-0.0105,2.295,11.225,169.0,10.266
0.02,-0.0186,2.293,11.221,169.0,10.192
-0.035,-0.0119,2.292,11.216,169.0,10.124
-0.07,-0.0109,2.292,11.214,169.0,10.082
-0.044,-0.0162,2.291,11.212,169.0,10.008
-0.031,-0.0104,2.29,11.214,169.0,9.916
-0.029,-0.0065,2.29,11.22,169.0,9.82
-0.026,-0.0055,2.287,11.225,169.0,9.688
-0.022,-0.0107,2.287,11.226,169.0,9.638
-0.009,-0.0053,2.286,11.226,169.0,9.566
-0.019,-0.0024,2.285,11.23,169.0,9.5
0.001,-0.0102,2.283,11.229,169.0,9.462
-0.464,-0.0029,2.283,11.227,169.0,9.454
0.076,-0.0026,2.283,11.221,169.0,9.482
0.101,-0.0011,2.282,11.214,169.0,9.548
0.045,0.0003,2.281,11.209,169.0,9.636
0.032,-0.0083,2.28,11.203,169.0,9.728
0.048,-0.01,2.277,11.196,169.0,9.832
0.045,-0.0137,2.277,11.186,169.0,9.946
0.051,-0.0049,2.276,11.176,169.0,10.062
0.051,0.0036,2.275,11.164,169.0,10.174
0.052,0.0103,2.273,11.154,169.0,10.278
0.055,-0.048,2.272,11.144,169.0,10.35
-0.342,-0.0203,2.272,11.144,169.0,10.396
0.059,-0.0148,2.272,11.144,169.0,10.462
0.136,-0.0164,2.272,11.143,169.0,10.568
0.13,-0.001,2.27,11.14,169.0,10.714
0.033,-0.0342,2.268,11.138,169.0,10.974
0.063,-0.0216,2.267,11.132,169.0,11.24
0.07,-0.0176,2.267,11.126,169.0,11.4
0.07,-0.0108,2.265,11.125,169.0,11.496
0.077,-0.017,2.263,11.127,169.0,11.528
0.074,-0.0163,2.262,11.143,169.0,11.516
0.074,-0.0174,2.262,11.156,169.0,11.468
0.033,-0.0159,2.262,11.16,169.0,11.408
0.06,-0.0072,2.261,11.162,169.0,11.362
-0.462,-0.0094,2.26,11.163,169.0,11.32
0.091,0.0,2.258,11.167,169.0,11.272
0.095,-0.0049,2.257,11.172,169.0,11.214
0.034,0.0007,2.257,11.174,169.0,11.212
0.004,-0.0114,2.256,11.174,169.0,11.262
0.009,-0.0024,2.255,11.172,169.0,11.33
0.0,-0.0051,2.252,11.168,169.0,11.386
-0.006,0.0014,2.252,11.16,169.0,11.402
-0.015,-0.0026,2.252,11.155,169.0,11.366
-0.014,0.0032,2.252,11.151,169.0,11.292
-0.032,-0.0036,2.251,11.146,169.0,11.2
-0.039,0.0004,2.25,11.14,169.0,11.118
-0.449,0.0037,2.248,11.138,169.0,11.04
0.019,-0.0031,2.247,11.137,78.0,0.0
0.024,-0.0057,2.247,11.137,78.0,0.0
-0.039,-0.0059,2.246,11.133,78.0,10.878
-0.019,-0.0042,2.245,11.132,78.0,10.9
-0.007,-0.0012,2.243,11.128,78.0,10.958
-0.018,0.0056,2.242,11.121,78.0,11.03
-0.034,0.0008,2.242,11.111,78.0,11.064
-0.034,-0.0012,2.241,11.09,78.0,11.096
-0.038,-0.005,2.24,11.068,78.0,11.118
-0.026,-0.0057,2.238,11.067,78.0,11.14
-0.411,0.0004,2.237,11.061,78.0,11.156
0.0,0.0004,2.235,11.045,80.0,11.168
-0.041,0.0065,2.232,11.043,80.0,11.18
-0.054,-0.0031,2.232,11.041,80.0,11.192
-0.07,0.0074,2.231,11.04,80.0,11.21
-0.065,0.0107,2.23,11.039,80.0,11.224
-0.062,0.0079,2.23,11.035,80.0,11.244
-0.061,0.0093,2.228,11.031,80.0,11.236
-0.057,0.0079,2.227,11.029,80.0,11.188
-0.431,0.0012,2.227,11.026,80.0,11.108
-0.012,-0.0009,2.225,11.023,80.0,11.008
0.024,0.0013,2.225,11.019,80.0,10.894
0.011,-0.0009,2.222,11.016,80.0,10.782
-0.021,-0.0189,2.222,11.013,80.0,10.706
0.068,-0.0174,2.222,10.992,112.0,10.68
0.074,-0.0113,2.222,10.972,112.0,10.68
0.083,-0.007,2.221,10.97,112.0,10.684
0.088,-0.0056,2.22,10.972,112.0,10.688
0.102,-0.004,2.218,10.981,112.0,10.66
-0.284,-0.0025,2.217,10.985,112.0,10.634
0.116,-0.0048,2.217,10.985,93.0,10.572
0.14,-0.0039,2.215,10.983,93.0,10.502
0.047,-0.0121,2.215,10.98,93.0,10.438
0.153,-0.0116,2.214,10.978,93.0,10.392
0.15,-0.0064,2.213,10.978,93.0,10.358
0.133,-0.0064,2.213,10.975,93.0,10.336
0.115,-0.0081,2.213,10.973,93.0,10.326
-0.284,-0.0034,2.21,10.968,93.0,10.316
-0.284,-0.0034,2.21,10.968,101.0,10.324
0.022,-0.0064,2.208,10.962,101.0,10.336
0.076,-0.006,2.208,10.959,101.0,10.338
-0.011,-0.0111,2.208,10.956,101.0,10.33
0.02,-0.0169,2.205,10.954,101.0,10.318
0.009,-0.0081,2.205,10.951,101.0,10.318
0.0,-0.0082,2.203,10.949,101.0,10.334
-0.007,-0.0007,2.203,10.945,101.0,10.35
-0.017,0.0012,2.203,10.944,101.0,10.368
-0.009,0.0006,2.203,10.941,101.0,10.396
-0.515,0.0018,2.203,10.937,101.0,10.434
0.026,0.0005,2.203,10.927,101.0,10.468
0.025,-0.0004,2.2,10.907,101.0,10.5
-0.012,0.004,2.2,10.914,101.0,10.522
-0.05,-0.0112,2.2,10.916,101.0,10.544
-0.036,-0.0142,2.198,10.916,101.0,10.568
-0.046,-0.008,2.198,10.916,101.0,10.598
-0.053,-0.0117,2.198,10.912,101.0,10.634
-0.061,-0.0136,2.196,10.908,101.0,10.654
-0.069,-0.0093,2.195,10.906,101.0,10.67
-0.442,-0.0036,2.195,10.904,101.0,10.68
-0.112,-0.0038,2.195,10.902,101.0,10.68
-0.022,-0.0015,2.194,10.898,101.0,10.672
-0.034,0.0025,2.193,10.896,101.0,10.66
-0.106,-0.0046,2.193,10.893,88.0,10.648
-0.073,-0.0119,2.193,10.891,88.0,10.638
-0.066,-0.0095,2.19,10.887,88.0,10.672
-0.058,-0.0056,2.189,10.884,88.0,10.672
-0.051,0.0015,2.188,10.882,88.0,10.68
-0.035,-0.0094,2.188,10.877,88.0,10.684
-0.435,-0.0049,2.188,10.874,88.0,10.678
0.004,0.0001,2.186,10.869,88.0,10.656
0.025,-0.003,2.185,10.867,88.0,10.622
-0.008,-0.004,2.184,10.864,88.0,10.612
-0.033,-0.007,2.183,10.857,86.0,10.616
0.034,-0.009,2.183,10.838,86.0,10.626
0.037,-0.0003,2.183,10.83,86.0,10.616
0.042,-0.0016,2.183,10.827,86.0,10.598
0.034,-0.0082,2.183,10.826,86.0,10.578
0.039,-0.0083,2.18,10.825,86.0,10.554
-0.369,-0.0022,2.18,10.819,86.0,10.536
0.06,-0.0007,2.179,10.819,91.0,10.516
0.089,-0.0056,2.178,10.819,91.0,10.502
0.053,0.0037,2.178,10.819,91.0,10.484
-0.005,-0.0117,2.175,10.819,91.0,10.47
0.048,-0.0125,2.175,10.817,91.0,10.46
0.045,-0.0069,2.175,10.819,91.0,10.456
0.036,-0.008,2.173,10.816,91.0,10.468
0.035,-0.001,2.173,10.817,91.0,10.494
0.026,0.0002,2.173,10.82,91.0,10.544
0.046,-0.0026,2.173,10.826,91.0,10.62
-0.468,-0.0068,2.173,10.836,91.0,10.684
0.086,0.0021,2.171,10.848,87.0,10.726
0.094,0.0037,2.17,10.864,87.0,10.722
0.042,0.0024,2.17,10.886,87.0,10.688
0.006,-0.0158,2.169,10.909,87.0,10.646
0.021,-0.0116,2.168,10.966,87.0,10.602
0.011,-0.0013,2.168,10.995,87.0,10.55
0.002,-0.0045,2.168,11.025,87.0,10.502
-0.007,-0.0015,2.168,11.051,87.0,10.468
0.002,-0.0042,2.168,11.078,87.0,10.496
-0.467,-0.0049,2.166,11.103,87.0,10.606
0.052,-0.0005,2.168,11.128,83.0,10.716
0.062,0.0026,2.168,11.152,83.0,10.728
0.018,0.0017,2.168,11.17,83.0,10.632
-0.014,-0.0179,2.169,11.189,83.0,10.47
0.013,-0.0125,2.17,11.205,83.0,10.296
0.008,-0.004,2.171,11.22,83.0,10.172
0.003,-0.0115,2.173,11.231,83.0,10.096
0.0,-0.0076,2.173,11.241,83.0,10.058
0.0,-0.0028,2.173,11.25,83.0,10.052
-0.01,-0.0047,2.175,11.256,83.0,10.072
0.012,-0.0034,2.178,11.262,83.0,10.096
-0.458,-0.0078,2.179,11.267,83.0,10.13
0.053,-0.0069,2.18,11.27,78.0,10.142
0.056,-0.0058,2.18,11.272,78.0,10.148
0.01,0.0005,2.183,11.274,78.0,10.152
-0.006,-0.0113,2.183,11.276,78.0,10.156
0.02,-0.0046,2.183,11.276,78.0,10.162
0.024,-0.001,2.184,11.274,78.0,10.172
0.021,-0.001,2.185,11.271,78.0,10.19
0.017,-0.0017,2.185,11.266,78.0,10.204
0.019,-0.0001,2.185,11.261,78.0,10.222
0.022,-0.003,2.185,11.255,78.0,10.236
0.023,-0.0025,2.185,11.248,78.0,10.238
-0.289,0.0,2.185,11.241,78.0,10.23
-0.011,-0.006,2.185,11.232,74.0,10.224
0.102,-0.0087,2.185,11.225,74.0,10.216
0.094,0.0,2.185,11.218,74.0,10.206
0.019,-0.0063,2.186,11.209,74.0,10.204
0.089,-0.0152,2.185,11.201,74.0,10.206
0.1,-0.0078,2.185,11.194,74.0,10.214
0.097,-0.0048,2.185,11.185,74.0,10.214
0.101,-0.0012,2.185,11.176,74.0,10.222
0.109,-0.0011,2.184,11.168,74.0,10.224
0.104,-0.0085,2.183,11.158,74.0,10.228
0.135,-0.0012,2.183,11.14,74.0,10.23
0.148,-0.0002,2.183,11.133,81.0,10.238
0.135,-0.0005,2.183,11.124,81.0,10.236
0.04,0.0002,2.18,11.117,81.0,10.236
0.097,-0.0172,2.18,11.111,81.0,10.236
0.126,-0.0082,2.179,11.104,81.0,10.23
0.116,-0.0043,2.179,11.098,81.0,10.23
0.112,0.0,2.178,11.089,81.0,10.226
0.107,-0.0028,2.178,11.083,81.0,10.23
0.089,-0.0059,2.175,11.077,81.0,10.234
0.102,-0.0035,2.175,11.072,81.0,10.25
-0.362,-0.0029,2.174,11.066,81.0,10.272
0.129,-0.0021,2.173,11.058,83.0,10.3
0.131,-0.0119,2.173,11.052,83.0,10.326
0.081,-0.0004,2.173,11.046,83.0,10.478
0.05,-0.0158,2.17,11.039,83.0,10.55
0.072,-0.0087,2.17,11.034,83.0,10.622
0.066,-0.0034,2.17,11.03,83.0,10.672
0.06,-0.0009,2.168,11.024,83.0,10.724
0.058,-0.0033,2.168,11.017,83.0,10.78
0.054,-0.0073,2.168,11.014,83.0,10.82
0.042,-0.0034,2.166,11.006,83.0,10.864
0.055,0.0013,2.165,11.0,83.0,10.902
-0.46,-0.006,2.165,10.995,83.0,10.93
0.11,-0.0023,2.163,10.989,77.0,10.96
0.096,0.0028,2.163,10.988,77.0,10.968
0.06,0.0049,2.163,10.995,77.0,10.948
-0.007,-0.0109,2.163,11.0,77.0,10.912
0.039,-0.0118,2.163,11.006,77.0,10.868
0.018,-0.0068,2.163,11.026,77.0,10.826
0.0,-0.0115,2.163,11.034,77.0,10.776
0.007,-0.0045,2.161,11.033,77.0,10.728
-0.002,-0.0225,2.161,11.031,77.0,10.698
-0.021,-0.01,2.16,11.025,77.0,10.66
-0.16,-0.0122,2.16,11.024,77.0,10.626
-0.236,-0.0106,2.159,11.019,77.0,10.59
0.059,-0.0094,2.158,11.015,77.0,10.554
0.09,-0.0107,2.158,11.016,77.0,10.522
0.16,-0.0027,2.158,11.015,77.0,10.512
0.039,-0.023,2.158,11.014,77.0,10.51
0.079,-0.0156,2.156,11.014,77.0,10.518
0.187,0.0023,2.156,11.013,77.0,10.524
0.116,0.0021,2.158,11.019,77.0,10.536
0.047,0.0085,2.158,11.018,77.0,10.548
0.047,0.0078,2.155,11.014,77.0,10.55
-0.32,0.0059,2.155,11.011,77.0,10.55
0.076,-0.0016,2.153,11.008,140.0,10.538
0.081,0.0081,2.153,11.002,140.0,10.526
0.105,0.0066,2.153,10.998,140.0,10.524
0.057,0.0024,2.153,11.0,140.0,10.534
0.082,-0.0134,2.15,11.005,140.0,10.558
0.059,-0.006,2.15,11.016,140.0,10.584
0.099,-0.0111,2.149,11.033,140.0,10.584
0.115,-0.0179,2.148,11.051,140.0,10.576
0.168,-0.0115,2.15,11.067,140.0,10.558
-0.075,0.0076,2.15,11.085,140.0,10.548
0.141,-0.0053,2.149,11.109,140.0,10.55
0.244,-0.0003,2.148,11.145,140.0,10.566
0.225,-0.0003,2.148,11.184,140.0,10.594
0.15,-0.0076,2.148,11.224,140.0,10.612
0.179,-0.0175,2.148,11.288,140.0,10.62
0.165,-0.0087,2.148,11.362,140.0,10.616
0.156,-0.013,2.148,11.421,140.0,10.622
0.142,-0.003,2.148,11.485,140.0,10.634
0.135,-0.0055,2.148,11.557,140.0,10.654
-0.223,-0.0005,2.148,11.619,140.0,10.65
0.153,-0.0021,2.148,11.664,95.0,10.642
0.155,0.0007,2.149,11.701,95.0,10.632
0.125,0.0058,2.15,11.736,95.0,10.614
0.08,-0.01,2.153,11.762,95.0,10.614
0.113,-0.0154,2.154,11.784,95.0,10.724
0.107,-0.0063,2.155,11.802,95.0,10.706
0.099,0.0026,2.158,11.817,95.0,10.656
0.083,-0.0094,2.158,11.831,95.0,10.58
0.099,-0.0064,2.161,11.846,95.0,10.492
-0.285,-0.0022,2.163,11.861,95.0,10.414
0.114,-0.0025,2.164,11.876,95.0,10.394
0.111,0.0011,2.166,11.893,95.0,10.416
0.073,0.0013,2.169,11.91,95.0,10.466
0.095,-0.0206,2.171,11.961,95.0,10.518
0.074,-0.0048,2.176,11.976,95.0,10.568
0.058,-0.0056,2.178,11.991,95.0,10.57
0.053,0.0053,2.18,12.005,95.0,10.546
-0.252,-0.0133,2.183,12.02,95.0,10.546
0.105,-0.0025,2.184,12.031,95.0,10.582
0.094,-0.0002,2.186,12.041,95.0,10.622
0.026,0.0019,2.188,12.053,95.0,10.694
0.085,-0.0138,2.19,12.069,95.0,10.688
0.076,-0.0044,2.194,12.074,95.0,10.668
0.073,-0.0008,2.196,12.078,95.0,10.642
0.07,-0.0036,2.198,12.08,95.0,10.59
-0.204,0.0092,2.2,12.082,95.0,10.512
0.012,-0.0037,2.203,12.083,95.0,10.444
0.115,-0.0036,2.203,12.082,95.0,10.396
0.108,0.0008,2.205,12.082,95.0,10.356
0.044,-0.0088,2.208,12.08,95.0,10.314
0.088,-0.0187,2.209,12.076,95.0,10.262
0.089,-0.0147,2.211,12.069,95.0,10.244
0.081,-0.0039,2.213,12.061,95.0,10.196
0.078,-0.0042,2.213,12.053,95.0,10.124
0.066,-0.0015,2.215,12.045,95.0,10.058
0.097,-0.0021,2.216,12.036,95.0,9.996
-0.37,-0.0032,2.217,12.026,95.0,9.926
0.114,-0.0095,2.218,12.018,89.0,9.872
0.114,-0.0017,2.22,12.007,89.0,9.854
0.054,-0.0048,2.221,11.997,89.0,9.874
0.056,-0.017,2.222,11.984,89.0,9.916
0.059,-0.0099,2.222,11.973,89.0,9.96
0.057,-0.0064,2.223,11.961,89.0,10.02
0.048,-0.0044,2.222,11.947,89.0,10.098
0.04,-0.0049,2.225,11.934,89.0,10.182
0.027,-0.0056,2.225,11.921,89.0,10.25
-0.182,0.0001,2.227,11.907,89.0,10.304
-0.127,-0.0167,2.227,11.894,89.0,10.34
0.079,-0.0014,2.227,11.88,89.0,10.346
0.071,0.005,2.227,11.866,89.0,10.326
0.003,-0.0054,2.23,11.854,89.0,10.294
0.036,-0.0169,2.23,11.84,114.0,10.304
0.037,-0.0144,2.23,11.827,114.0,10.33
0.035,-0.0119,2.23,11.815,114.0,10.36
0.028,-0.0076,2.232,11.807,114.0,10.348
0.025,-0.0027,2.232,11.796,114.0,10.328
0.012,-0.0039,2.232,11.782,114.0,10.282
0.02,0.0013,2.232,11.769,114.0,10.228
-0.36,-0.0011,2.232,11.754,114.0,10.178
0.058,-0.0067,2.232,11.742,114.0,10.142
0.069,-0.0003,2.232,11.731,114.0,10.126
0.049,0.0001,2.232,11.718,114.0,10.104
0.004,-0.0112,2.232,11.706,80.0,10.082
0.032,-0.0096,2.232,11.696,80.0,10.052
0.031,-0.0005,2.232,11.683,80.0,10.03
0.028,-0.0063,2.232,11.671,80.0,10.016
0.027,-0.0068,2.231,11.658,80.0,10.012
0.025,-0.0063,2.23,11.649,80.0,10.002
0.011,-0.0046,2.23,11.638,80.0,9.994
-0.062,0.0042,2.228,11.629,80.0,9.99
-0.246,-0.0062,2.227,11.62,80.0,9.976
0.061,0.0009,2.227,11.611,80.0,9.95
0.054,0.0043,2.227,11.599,80.0,9.916
-0.021,-0.0047,2.227,11.593,80.0,9.896
0.044,-0.0168,2.225,11.583,80.0,9.882
0.05,-0.0111,2.225,11.573,80.0,9.864
0.043,-0.007,2.222,11.564,80.0,9.858
0.041,-0.0043,2.222,11.556,80.0,9.87
0.044,-0.006,2.222,11.548,80.0,9.872
0.049,-0.0039,2.222,11.539,80.0,9.868
-0.3,-0.002,2.22,11.533,80.0,9.868
0.073,-0.0085,2.22,11.526,80.0,9.872
0.106,0.0043,2.217,11.518,80.0,9.808
0.084,0.0011,2.217,11.512,80.0,9.776
0.032,-0.0121,2.216,11.507,80.0,9.74
0.092,-0.0142,2.215,11.503,87.0,9.706
0.096,-0.0051,2.213,11.496,87.0,9.684
0.087,-0.0045,2.214,11.491,87.0,9.67
0.086,0.0003,2.213,11.486,87.0,9.674
0.087,-0.0015,2.213,11.481,87.0,9.686
0.078,-0.007,2.21,11.476,87.0,9.716
-0.127,-0.0015,2.21,11.473,87.0,9.754
-0.093,-0.0156,2.21,11.467,82.0,9.808
0.128,0.0018,2.208,11.464,82.0,9.864
0.127,0.0,2.208,11.46,82.0,9.928
0.054,-0.0027,2.206,11.456,82.0,9.996
0.079,-0.0148,2.205,11.454,82.0,10.036
0.073,-0.0058,2.203,11.45,82.0,10.082
0.067,0.0008,2.203,11.45,82.0,10.292
0.058,-0.0083,2.203,11.451,82.0,10.4
0.052,-0.0084,2.203,11.457,82.0,10.49
0.036,-0.0094,2.203,11.465,82.0,10.57
0.062,-0.0079,2.2,11.476,82.0,10.62
-0.368,-0.0024,2.2,11.488,82.0,10.61
0.087,0.001,2.2,11.505,82.0,10.556
0.089,0.0041,2.198,11.521,82.0,10.518
0.039,0.0042,2.198,11.538,82.0,10.522
0.035,-0.0167,2.198,11.556,94.0,10.534
0.05,-0.0109,2.198,11.572,94.0,10.558
0.044,0.0004,2.198,11.588,94.0,10.534
0.043,0.0008,2.198,11.601,94.0,10.49
0.043,0.0005,2.198,11.614,94.0,10.456
0.031,-0.0087,2.198,11.625,94.0,10.458
0.038,-0.0051,2.198,11.634,94.0,10.47
-0.351,0.001,2.2,11.643,94.0,10.458
0.072,-0.0067,2.203,11.65,94.0,10.45
0.074,0.0035,2.203,11.657,94.0,10.458
0.037,0.0017,2.205,11.661,94.0,10.446
0.008,-0.016,2.206,11.665,94.0,10.458
0.031,-0.012,2.208,11.667,94.0,10.446
0.021,-0.0107,2.21,11.667,94.0,10.476
0.015,-0.013,2.213,11.669,94.0,10.466
0.016,-0.0093,2.214,11.669,94.0,10.454
0.006,-0.0052,2.217,11.671,94.0,10.45
0.04,0.0039,2.218,11.672,94.0,10.458
-0.337,0.0006,2.222,11.677,94.0,10.47
0.065,0.0004,2.223,11.681,94.0,10.488
-0.002,-0.0011,2.226,11.684,94.0,10.496
0.028,-0.0173,2.227,11.686,86.0,10.502
0.041,-0.0111,2.228,11.689,86.0,10.5
0.032,-0.0011,2.23,11.691,86.0,10.504
0.031,0.0014,2.231,11.694,86.0,10.504
0.035,-0.0019,2.233,11.696,86.0,10.506
0.025,-0.0055,2.232,11.696,86.0,10.5
-0.034,0.0,2.233,11.696,86.0,10.5
-0.27,-0.0142,2.235,11.696,86.0,10.506
0.076,-0.0009,2.237,11.694,86.0,10.532
0.07,0.0015,2.237,11.692,86.0,10.522
0.005,-0.0014,2.237,11.691,86.0,10.504
0.026,-0.0193,2.24,11.69,85.0,10.506
0.031,-0.0165,2.24,11.689,85.0,10.512
0.023,0.001,2.24,11.686,85.0,10.506
0.013,-0.0041,2.241,11.686,85.0,10.496
0.011,-0.0059,2.242,11.691,85.0,10.512
0.008,-0.0078,2.242,11.698,85.0,10.522
-0.355,0.0018,2.242,11.71,85.0,10.54
0.032,-0.0132,2.242,11.725,85.0,10.644
0.059,-0.0002,2.242,11.745,85.0,10.682
0.044,0.0045,2.242,11.767,85.0,10.644
-0.013,-0.0073,2.242,11.792,85.0,10.682
0.02,-0.0163,2.242,11.817,87.0,10.654
0.015,-0.01,2.241,11.839,87.0,10.628
0.011,-0.0055,2.241,11.864,87.0,10.636
0.009,-0.0015,2.242,11.884,87.0,10.648
0.005,-0.0014,2.242,11.903,87.0,10.668
0.003,-0.0053,2.243,11.921,87.0,10.672
-0.349,0.0018,2.246,11.937,87.0,10.694
0.02,-0.006,2.247,11.949,87.0,10.722
0.056,-0.0053,2.25,11.959,87.0,10.748
0.046,0.002,2.252,11.968,87.0,10.768
-0.013,-0.0059,2.256,11.976,87.0,10.768
0.022,-0.018,2.261,11.982,84.0,10.764
0.019,-0.0147,2.265,11.985,84.0,10.748
0.013,-0.0072,2.268,11.987,84.0,10.726
0.011,-0.0121,2.272,11.985,84.0,10.732
0.012,0.0021,2.276,11.983,84.0,10.834
0.01,-0.004,2.278,11.981,84.0,10.926
-0.351,-0.0004,2.283,11.976,84.0,11.014
0.041,-0.0084,2.286,11.972,84.0,11.056
0.058,-0.005,2.29,11.966,84.0,11.068
0.036,0.0005,2.296,11.953,84.0,11.08
0.027,-0.0115,2.297,11.944,85.0,11.062
0.025,0.0013,2.301,11.937,85.0,11.032
0.019,-0.001,2.302,11.927,85.0,11.034
0.018,-0.0025,2.303,11.917,85.0,11.048
0.018,-0.0005,2.305,11.907,85.0,11.044
0.008,-0.0066,2.307,11.897,85.0,11.02
0.037,-0.0071,2.309,11.885,85.0,10.99
-0.363,-0.0079,2.309,11.875,85.0,10.97
0.069,-0.0016,2.309,11.865,85.0,10.946
0.071,0.0021,2.309,11.854,85.0,10.93
0.02,0.0042,2.309,11.842,85.0,10.91
0.026,-0.0153,2.31,11.835,80.0,10.886
0.042,-0.0112,2.309,11.825,80.0,10.856
0.039,-0.0066,2.309,11.814,80.0,10.812
0.033,-0.0071,2.307,11.803,80.0,10.76
0.034,-0.0078,2.307,11.793,80.0,10.714
0.031,-0.0038,2.307,11.785,80.0,10.698
0.026,-0.0018,2.305,11.774,80.0,10.694
-0.23,0.0023,2.304,11.763,80.0,10.714
-0.035,-0.0105,2.303,11.755,80.0,10.71
0.08,-0.0121,2.302,11.747,80.0,10.714
0.069,0.0011,2.301,11.74,80.0,10.736
0.007,-0.0039,2.298,11.733,80.0,10.78
0.044,-0.0153,2.297,11.725,80.0,10.79
0.045,-0.0015,2.295,11.718,80.0,10.732
0.037,-0.0001,2.292,11.711,80.0,10.582
0.032,-0.0012,2.291,11.703,80.0,10.462
0.027,-0.0013,2.288,11.696,80.0,10.39
0.027,-0.008,2.287,11.688,80.0,10.334
0.032,-0.0015,2.285,11.682,80.0,10.312
-0.326,-0.0008,2.282,11.678,80.0,10.28
0.072,-0.0101,2.281,11.672,80.0,10.238
0.072,0.0015,2.278,11.667,80.0,10.212
0.039,0.0028,2.277,11.66,80.0,10.26
0.035,-0.0159,2.275,11.654,80.0,10.338
0.065,-0.0132,2.272,11.65,80.0,10.404
0.051,-0.0109,0.0,11.643,80.0,10.49
0.055,-0.0062,2.267,11.638,80.0,10.588
0.053,-0.0102,2.267,11.631,80.0,10.694
0.039,-0.0005,2.265,11.625,80.0,10.808
0.048,0.0066,2.263,11.619,80.0,10.922
-0.281,-0.0064,2.261,11.613,80.0,11.566
0.087,-0.0018,2.26,11.608,87.0,11.67
0.086,0.0033,2.258,11.601,87.0,11.77
0.033,0.0034,2.257,11.595,87.0,11.866
0.059,-0.017,2.255,11.59,87.0,11.96
0.064,-0.0148,2.253,11.588,87.0,12.048
0.064,-0.0149,2.252,11.584,87.0,12.14
0.06,-0.0103,2.248,11.573,87.0,12.218
0.056,0.0036,2.247,11.568,87.0,12.286
0.093,0.0061,2.246,11.563,87.0,12.34
-0.333,-0.0011,2.243,11.56,87.0,12.418
0.133,-0.0031,2.242,11.556,83.0,12.49
0.141,-0.0038,2.242,11.552,83.0,12.558
0.083,-0.0038,2.241,11.548,83.0,12.618
0.08,-0.0088,2.238,11.543,83.0,12.674
0.083,-0.0164,2.237,11.541,83.0,12.712
0.076,-0.013,2.235,11.536,83.0,12.71
0.076,-0.0133,2.232,11.531,83.0,12.648
0.075,-0.0058,2.232,11.526,83.0,12.53
0.064,-0.0062,2.232,11.523,83.0,12.372
0.091,-0.005,2.23,11.521,83.0,12.168
-0.317,-0.0079,2.227,11.516,83.0,11.938
0.109,-0.0056,2.227,11.511,84.0,11.684
0.099,0.0004,2.225,11.51,84.0,11.406
0.046,0.0012,2.225,11.511,84.0,11.12
0.054,-0.013,2.222,11.516,84.0,10.856
0.064,-0.0076,2.222,11.524,84.0,10.626
0.05,-0.0108,2.22,11.536,84.0,10.432
0.04,-0.0089,2.218,11.552,84.0,10.272
0.042,-0.0064,2.217,11.572,84.0,10.136
0.028,-0.0092,2.217,11.594,84.0,10.016
-0.039,0.0062,2.215,11.619,84.0,9.914
0.074,-0.0048,2.213,11.675,84.0,9.828
0.074,-0.0048,2.213,11.675,86.0,9.728
0.063,-0.0037,2.213,11.731,86.0,9.63
0.035,-0.0147,2.213,11.758,86.0,9.55
0.045,-0.0092,2.21,11.782,86.0,9.496
0.037,0.0011,2.21,11.806,86.0,9.456
0.034,-0.0085,2.21,11.829,86.0,9.418
0.036,-0.0057,2.21,11.849,86.0,9.394
0.024,-0.0076,2.21,11.864,86.0,9.356
-0.092,0.0094,2.213,11.875,86.0,9.316
-0.162,-0.0111,2.213,11.894,86.0,9.262
0.074,-0.0035,2.215,11.899,86.0,9.222
0.013,-0.0017,2.215,11.904,86.0,9.196
0.05,-0.0134,2.216,11.906,94.0,9.186
0.056,-0.0089,2.217,11.91,94.0,9.19
0.06,-0.008,2.218,11.91,94.0,9.21
0.064,-0.0047,2.22,11.909,94.0,9.218
0.071,-0.0011,2.221,11.905,94.0,9.222
0.059,-0.0042,2.222,11.901,94.0,9.228
-0.034,0.0032,2.222,11.896,94.0,9.26
-0.181,-0.0085,2.222,11.89,94.0,9.312
0.102,-0.005,2.225,11.882,96.0,9.356
0.096,0.0014,2.225,11.874,96.0,9.398
0.03,-0.0025,2.225,11.866,96.0,9.476
0.059,-0.016,2.227,11.857,96.0,9.616
0.064,-0.0148,2.227,11.847,96.0,9.788
0.058,-0.0092,2.227,11.84,96.0,9.984
0.051,-0.0063,2.227,11.827,96.0,10.182
0.049,-0.0033,2.227,11.817,96.0,11.696
0.031,-0.0039,2.227,11.807,96.0,11.928
-0.069,0.0059,2.227,11.795,96.0,12.132
-0.199,-0.0107,2.228,11.783,96.0,12.324
0.077,-0.0044,2.227,11.772,84.0,12.496
0.073,0.002,2.227,11.759,84.0,12.668
0.024,-0.0021,2.227,11.749,84.0,12.814
0.076,-0.0297,2.227,11.741,84.0,12.936
0.09,-0.019,2.227,11.731,84.0,13.026
0.075,-0.0068,2.227,11.721,84.0,13.122
0.084,-0.0017,2.226,11.711,84.0,13.198
0.099,-0.0149,2.225,11.701,84.0,13.266
0.102,-0.0141,2.223,11.691,84.0,13.324
-0.237,-0.0038,2.223,11.681,84.0,13.356
0.138,-0.0086,2.222,11.671,86.0,13.334
0.162,-0.0012,2.222,11.661,86.0,13.256
0.148,0.0079,2.222,11.653,86.0,13.138
0.087,-0.0083,2.222,11.645,86.0,12.982
0.108,-0.0096,2.22,11.638,86.0,12.828
0.095,-0.0014,2.218,11.633,86.0,12.64
0.081,-0.0046,2.217,11.628,86.0,12.428
0.075,0.0003,2.217,11.624,86.0,12.174
0.056,0.003,2.216,11.62,86.0,11.92
0.06,0.0038,2.214,11.619,86.0,11.694
-0.312,0.0078,2.213,11.615,86.0,11.468
0.082,-0.0052,2.213,11.614,87.0,11.228
0.078,-0.001,2.211,11.613,87.0,10.998
0.031,0.0032,2.209,11.608,87.0,10.808
-0.003,-0.0171,2.208,11.604,87.0,10.664
-0.007,-0.0067,2.208,11.599,87.0,10.558
-0.05,0.003,2.208,11.594,87.0,10.494
-0.108,-0.0108,2.205,11.588,87.0,10.45
-0.154,-0.0042,2.205,11.582,87.0,10.428
-0.194,0.0058,2.203,11.578,87.0,10.402
-0.379,0.0138,2.203,11.573,87.0,10.388
-0.407,-0.0039,2.203,11.57,87.0,10.366
-0.248,0.0013,2.201,11.568,87.0,10.33
-0.304,0.0034,2.2,11.561,87.0,10.306
-0.414,-0.0083,2.199,11.556,87.0,10.328
-0.38,-0.0172,2.198,11.551,87.0,10.36
-0.404,-0.0159,2.198,11.55,87.0,10.394
-0.433,-0.0131,2.196,11.547,87.0,10.428
-0.457,-0.0046,2.195,11.545,87.0,10.426
-0.475,-0.0074,2.195,11.541,87.0,10.394
-0.469,-0.0007,2.193,11.536,87.0,10.346
-0.804,0.0065,2.193,11.531,87.0,10.272
-0.409,-0.0074,2.191,11.522,87.0,10.208
-0.379,0.0051,2.19,11.511,87.0,10.192
-0.386,0.0074,2.185,11.496,87.0,10.168
-0.299,-0.0096,2.185,11.495,87.0,10.136
-0.275,-0.0098,2.184,11.492,87.0,10.09
-0.241,-0.0113,2.183,11.488,87.0,10.038
-0.201,-0.0107,2.183,11.483,87.0,10.002
-0.459,-0.0027,2.18,11.48,87.0,10.002
-0.146,-0.017,2.178,11.476,87.0,9.97
-0.059,-0.0076,2.178,11.474,87.0,9.936
-0.044,0.0038,2.178,11.473,87.0,9.904
-0.071,-0.0062,2.178,11.471,87.0,9.89
-0.005,-0.0151,2.175,11.469,87.0,9.89
0.01,-0.0021,2.175,11.461,87.0,9.916
0.023,-0.0038,2.173,11.454,87.0,9.972
0.037,-0.0016,2.173,11.447,87.0,10.004
0.037,-0.0065,2.173,11.441,87.0,9.972
-0.12,0.0085,2.17,11.438,87.0,10.004
-0.074,-0.0178,2.169,11.431,87.0,10.074
0.112,-0.01,2.169,11.427,87.0,10.082
0.107,0.0026,2.168,11.424,87.0,10.08
0.048,-0.0072,2.168,11.421,87.0,10.06
0.096,-0.0164,2.166,11.416,87.0,10.05
0.106,-0.0051,2.165,11.414,87.0,10.026
0.103,-0.0056,2.165,11.41,87.0,10.006
0.105,0.0004,2.163,11.405,87.0,9.998
0.096,-0.0023,2.163,11.401,87.0,10.006
0.128,-0.005,2.163,11.396,87.0,10.03
-0.257,-0.0054,2.161,11.395,87.0,10.068
0.143,-0.0067,2.16,11.393,90.0,10.108
0.142,0.0023,2.159,11.391,90.0,10.142
0.085,0.0019,2.158,11.389,90.0,10.17
0.098,-0.0197,2.158,11.388,90.0,10.204
0.113,-0.0151,2.156,11.388,90.0,10.256
0.112,-0.0058,2.155,11.386,90.0,10.296
0.111,-0.0063,2.154,11.384,90.0,10.328
0.098,0.0021,2.154,11.386,90.0,10.358
0.104,0.0022,2.153,11.383,90.0,10.382
-0.246,-0.0006,2.153,11.383,90.0,10.392
0.14,-0.0099,2.153,11.381,90.0,10.396
0.132,-0.0028,2.15,11.382,90.0,10.382
0.078,0.0048,2.15,11.381,90.0,10.36
0.061,-0.0164,2.149,11.381,90.0,10.334
0.074,-0.0141,2.148,11.379,90.0,10.314
0.055,-0.0088,2.148,11.378,90.0,10.308
0.038,-0.0058,2.146,11.377,90.0,10.304
0.008,-0.0092,2.145,11.374,90.0,10.304
0.014,-0.0076,2.144,11.373,90.0,10.296
-0.381,0.0008,2.143,11.371,90.0,10.296
0.027,-0.001,2.143,11.369,90.0,10.296
0.003,0.0014,2.143,11.366,90.0,10.3
-0.066,0.0033,2.143,11.363,90.0,10.294
-0.047,-0.0141,2.141,11.361,90.0,10.3
-0.021,-0.0121,2.14,11.358,90.0,10.302
-0.038,0.0013,2.139,11.356,90.0,10.306
-0.034,0.0008,2.138,11.352,90.0,10.306
-0.04,-0.002,2.138,11.349,90.0,10.314
-0.002,-0.0046,2.138,11.346,90.0,10.316
-0.435,-0.0021,2.135,11.342,90.0,10.322
0.04,-0.0036,2.135,11.337,90.0,10.336
0.05,-0.0002,2.135,11.336,90.0,10.35
0.008,-0.0075,2.133,11.333,90.0,10.368
0.021,-0.0167,2.133,11.327,90.0,10.37
0.043,-0.0079,2.131,11.326,90.0,10.368
0.041,-0.0013,2.13,11.322,90.0,10.356
0.037,-0.0052,2.13,11.322,90.0,10.35
0.057,-0.0036,2.128,11.321,90.0,10.336
-0.383,-0.0065,2.128,11.317,90.0,10.334
0.071,-0.0132,2.128,11.317,90.0,10.316
0.063,0.0049,2.127,11.314,90.0,10.304
0.02,-0.0008,2.126,11.311,90.0,10.292
0.044,-0.0228,2.124,11.309,90.0,10.28
0.092,-0.0113,2.123,11.307,90.0,10.272
0.139,0.0018,2.123,11.303,90.0,10.272
0.176,0.0044,2.122,11.298,90.0,10.278
0.212,-0.0011,2.121,11.295,90.0,10.268
-0.153,0.0058,2.119,11.29,90.0,10.262
0.272,-0.004,2.119,11.287,89.0,10.244
0.288,0.005,2.118,11.282,89.0,10.228
0.268,-0.0001,2.116,11.277,89.0,10.212
0.214,-0.0075,2.114,11.272,89.0,10.182
0.25,-0.013,2.113,11.267,89.0,10.162
0.241,-0.0001,2.113,11.262,89.0,10.18
0.242,0.0024,2.111,11.256,89.0,10.218
0.249,-0.0017,2.111,11.252,89.0,10.25
0.241,-0.005,2.109,11.252,89.0,10.28
0.215,-0.0044,2.108,11.252,89.0,10.288
-0.14,-0.0122,2.108,11.246,89.0,10.272
0.307,-0.0241,2.108,11.251,85.0,10.218
0.231,0.0042,2.109,11.261,85.0,10.152
0.216,0.0119,2.109,11.269,85.0,10.08
0.224,-0.0145,2.114,11.272,85.0,10.036
0.206,-0.0148,2.119,11.272,85.0,10.016
0.162,-0.003,2.123,11.274,85.0,10.016
0.144,0.0024,2.123,11.274,85.0,10.026
0.135,0.0031,2.126,11.274,85.0,10.058
0.113,-0.0101,2.126,11.276,85.0,10.084
-0.001,-0.0042,2.123,11.277,85.0,10.096
-0.14,-0.0163,2.123,11.28,85.0,10.106
0.125,-0.0137,2.123,11.29,85.0,10.106
0.038,0.0001,2.121,11.289,85.0,10.108
0.061,-0.014,2.119,11.291,85.0,10.114
0.06,-0.0061,2.118,11.291,85.0,10.126
0.061,0.0003,2.118,11.29,85.0,10.13
0.05,-0.002,2.118,11.289,85.0,10.116
0.035,0.0026,2.117,11.286,85.0,10.09
0.044,-0.0023,2.116,11.282,85.0,10.058
-0.308,-0.0001,2.116,11.28,85.0,10.028
0.068,-0.0044,2.116,11.276,85.0,10.006
0.098,-0.0031,2.114,11.275,85.0,10.014
0.088,0.0031,2.113,11.271,85.0,10.04
0.036,-0.0096,2.113,11.267,85.0,10.072
0.064,-0.0059,2.113,11.262,85.0,10.086
0.063,-0.0023,2.111,11.257,85.0,10.096
0.056,-0.0013,2.109,11.255,85.0,10.09
0.062,0.002,2.108,11.25,85.0,10.078
0.054,0.0051,2.107,11.247,85.0,10.072
0.043,-0.0001,2.104,11.246,85.0,10.07
-0.286,0.0028,2.102,11.244,85.0,10.058
0.114,-0.0124,2.098,11.241,84.0,10.05
0.202,-0.0227,2.096,11.239,84.0,10.05
0.111,-0.0158,2.093,11.235,84.0,10.058
0.01,-0.0079,2.093,11.232,84.0,10.06
0.049,-0.0106,2.093,11.223,84.0,10.048
0.029,0.0027,2.092,11.217,84.0,10.046
0.002,-0.0158,2.089,11.209,84.0,10.038
0.004,-0.0112,2.088,11.201,84.0,10.042
0.015,0.0031,2.088,11.195,84.0,10.042
0.008,0.0032,2.088,11.193,84.0,10.048
-0.221,0.0046,2.087,11.188,84.0,10.05
-0.1,-0.0084,2.084,11.185,84.0,10.052
0.086,-0.0004,2.084,11.181,84.0,10.05
0.084,0.0,2.083,11.176,84.0,10.046
0.012,-0.0073,2.082,11.173,84.0,10.038
0.04,-0.0202,2.079,11.169,106.0,10.03
0.043,-0.0131,2.078,11.164,106.0,10.036
0.032,-0.0051,2.078,11.162,106.0,10.038
0.026,-0.005,2.078,11.159,106.0,10.048
0.02,-0.0034,2.078,11.157,106.0,10.042
0.029,0.0,2.078,11.153,106.0,10.036
-0.323,-0.0045,2.078,11.15,106.0,10.024
0.075,-0.0095,2.078,11.145,106.0,10.03
0.091,-0.0005,2.078,11.143,106.0,10.046
0.073,0.0039,2.076,11.139,106.0,10.058
0.024,-0.0109,2.076,11.137,106.0,10.056
0.051,-0.0127,2.074,11.137,87.0,10.052
0.046,-0.0022,2.073,11.134,87.0,10.072
0.047,0.0001,2.073,11.128,87.0,10.084
0.035,-0.0117,2.073,11.126,87.0,10.084
0.071,-0.0062,2.072,11.123,87.0,10.06
-0.319,-0.0064,2.071,11.12,87.0,10.038
0.095,-0.0025,2.071,11.117,87.0,10.03
0.093,0.0035,2.069,11.115,87.0,10.056
0.046,0.0049,2.068,11.111,87.0,10.092
0.043,-0.0156,2.068,11.11,87.0,10.148
0.062,-0.0136,2.068,11.107,87.0,10.23
0.056,-0.0121,2.067,11.105,87.0,10.482
0.048,-0.0045,2.066,11.101,87.0,10.468
0.046,-0.0054,2.066,11.1,87.0,10.426
0.036,-0.0094,2.064,11.098,87.0,10.41
-0.121,0.004,2.063,11.096,87.0,10.392
-0.116,-0.011,2.063,11.095,87.0,10.362
0.095,-0.0014,2.063,11.092,87.0,10.324
0.09,0.0034,2.063,11.092,87.0,10.29
0.034,-0.0042,2.062,11.09,87.0,10.26
0.056,-0.0159,2.061,11.087,86.0,10.222
0.058,-0.0048,2.061,11.085,86.0,10.178
0.057,-0.0064,2.059,11.082,86.0,10.108
0.055,-0.0011,2.059,11.078,86.0,10.04
0.047,-0.0016,2.058,11.075,86.0,10.002
0.052,-0.0093,2.058,11.067,86.0,10.012
-0.296,-0.0042,2.058,11.056,86.0,10.072
0.094,-0.0021,2.057,11.047,86.0,10.19
0.096,-0.0048,2.056,11.045,86.0,10.312
0.076,0.004,2.056,11.045,86.0,10.428
0.034,-0.0132,2.053,11.045,86.0,10.572
0.058,-0.0134,2.053,11.046,88.0,10.722
0.051,-0.0051,2.053,11.045,88.0,10.882
0.046,-0.0053,2.053,11.042,88.0,11.052
0.055,-0.0135,2.053,11.041,88.0,11.23
0.042,-0.0067,2.053,11.039,88.0,11.4
-0.129,0.0061,2.052,11.038,88.0,11.568
-0.088,-0.0086,2.051,11.038,88.0,11.728
0.098,-0.0019,2.051,11.034,88.0,11.874
0.098,0.0014,2.049,11.033,88.0,12.004
0.039,-0.0015,2.048,11.031,88.0,12.128
0.066,-0.0152,2.049,11.03,88.0,12.238
0.069,-0.0015,2.048,11.031,88.0,12.346
0.062,0.0003,2.048,11.05,88.0,12.444
0.06,-0.003,2.047,11.061,88.0,12.536
0.043,-0.002,2.046,11.065,88.0,12.628
0.031,0.0056,2.046,11.068,88.0,12.714
-0.249,-0.0081,2.044,11.07,88.0,12.784
0.099,-0.0083,2.044,11.067,88.0,12.838
0.097,-0.0055,2.043,11.067,88.0,12.88
0.041,-0.0009,2.043,11.067,88.0,12.924
0.055,-0.0172,2.043,11.067,91.0,13.058
0.064,-0.0088,2.043,11.063,91.0,13.086
0.06,-0.0061,2.043,11.062,91.0,13.094
0.064,-0.0077,2.042,11.06,91.0,13.08
0.05,-0.0081,2.041,11.054,91.0,13.042
0.016,0.0044,2.041,11.044,91.0,12.964
-0.236,-0.0151,2.039,11.035,91.0,12.878
0.104,-0.0032,2.039,11.03,91.0,12.81
0.103,0.0041,2.038,11.029,91.0,12.722
0.051,-0.002,2.038,11.028,91.0,12.606
0.067,-0.0168,2.038,11.017,93.0,12.456
0.069,-0.0131,2.038,11.004,93.0,12.27
0.061,-0.0077,2.037,10.994,93.0,11.71
0.06,-0.0002,2.036,10.984,93.0,11.562
0.049,-0.0056,2.036,10.977,93.0,11.71
0.075,-0.0026,2.036,10.971,93.0,11.562
-0.298,0.001,2.036,10.969,93.0,11.178
0.1,-0.0002,2.034,10.965,93.0,11.102
0.102,0.0003,2.034,10.965,93.0,11.034
0.057,0.0006,2.034,10.963,93.0,10.96
0.059,-0.019,2.034,10.963,90.0,10.874
0.075,-0.0122,2.032,10.961,90.0,10.798
0.07,-0.004,2.034,10.96,90.0,10.732
0.063,-0.0052,2.031,10.959,90.0,10.676
0.052,-0.0026,2.031,10.958,90.0,10.626
0.072,-0.0012,2.031,10.955,90.0,10.594
-0.289,0.0,2.03,10.954,90.0,10.57
0.107,0.0024,2.029,10.953,93.0,10.548
0.105,-0.0055,2.029,10.95,93.0,10.518
0.061,-0.0011,2.029,10.95,93.0,10.496
0.046,-0.0186,2.029,10.95,93.0,10.478
0.061,0.007,2.029,10.948,93.0,10.466
0.058,-0.0045,2.029,10.947,93.0,10.45
0.054,-0.009,2.026,10.946,93.0,10.44
0.05,-0.0054,2.026,10.946,93.0,10.446
0.056,-0.0046,2.026,10.944,93.0,10.458
-0.304,0.0015,2.026,10.944,93.0,10.472
0.1,-0.006,2.024,10.947,91.0,10.482
0.104,-0.0059,2.024,10.948,91.0,10.492
0.076,0.0021,2.024,10.951,91.0,10.492
0.052,-0.0145,2.024,10.955,91.0,10.49
0.077,-0.0083,2.024,10.959,91.0,10.458
0.073,-0.0068,2.022,10.961,91.0,10.438
0.075,-0.0071,2.021,10.965,91.0,10.422
0.066,-0.0047,2.021,10.968,91.0,10.414
0.084,0.0001,2.021,10.971,91.0,10.406
-0.274,-0.0034,2.021,10.974,91.0,10.404
0.114,-0.0092,2.021,10.975,94.0,10.406
0.106,-0.0017,2.02,10.978,94.0,10.396
0.048,0.0012,2.019,10.978,94.0,10.388
0.061,-0.0152,2.019,10.979,94.0,10.374
0.089,-0.0066,2.019,10.98,94.0,10.368
0.088,-0.0063,2.019,10.98,94.0,10.358
0.092,-0.0038,2.019,10.98,94.0,10.356
0.086,-0.006,2.016,10.98,94.0,10.356
0.121,-0.0006,2.016,10.979,94.0,10.36
-0.275,-0.0074,2.016,10.978,94.0,10.36
0.15,-0.0064,2.015,10.978,93.0,10.352
0.155,-0.0069,2.015,10.978,93.0,10.346
0.108,-0.0032,2.014,10.975,93.0,10.33
0.098,-0.0133,2.014,10.975,93.0,10.312
0.113,-0.009,2.014,10.973,93.0,10.274
0.091,-0.0021,2.014,10.971,93.0,10.216
0.088,-0.0075,2.014,10.969,93.0,10.178
0.076,-0.0035,2.014,10.966,93.0,10.17
-0.053,0.0043,2.011,10.964,93.0,10.192
-0.164,-0.0092,2.011,10.961,93.0,10.406
0.144,-0.0011,2.011,10.958,87.0,10.514
0.144,0.0044,2.011,10.956,87.0,10.636
0.077,-0.0031,2.01,10.95,87.0,10.758
0.085,-0.0055,2.009,10.949,87.0,10.868
0.073,-0.0094,2.009,10.947,87.0,10.976
0.067,-0.0119,2.009,10.944,87.0,11.068
0.068,-0.0118,2.009,10.942,87.0,11.154
0.05,-0.0095,2.009,10.939,87.0,11.23
-0.119,0.0066,2.007,10.937,87.0,11.308
-0.136,-0.0155,2.006,10.933,84.0,11.386
0.1,-0.0048,2.006,10.924,84.0,11.456
0.035,0.0028,2.006,10.922,84.0,11.51
0.049,-0.0117,2.005,10.919,84.0,11.546
0.028,-0.0098,2.004,10.918,84.0,11.586
0.024,-0.0072,2.004,10.914,84.0,11.62
0.015,-0.0125,2.004,10.911,84.0,11.65
0.01,-0.004,2.004,10.907,84.0,11.676
-0.001,-0.0023,2.004,10.906,84.0,11.706
-0.004,-0.0043,2.002,10.902,84.0,11.722
-0.38,0.0009,2.001,10.899,84.0,11.722
0.016,-0.0059,2.001,10.894,84.0,11.708
0.031,0.0034,2.001,10.891,84.0,11.696
-0.039,-0.0099,1.999,10.887,104.0,11.684
-0.01,-0.0184,1.999,10.884,104.0,11.652
-0.009,-0.0109,1.999,10.882,104.0,11.61
-0.015,-0.0011,1.999,10.879,104.0,11.566
-0.022,-0.0105,1.999,10.876,104.0,11.544
-0.025,-0.0002,1.999,10.874,104.0,11.52
-0.034,-0.0012,1.997,10.872,104.0,11.48
-0.101,0.0065,1.996,10.869,104.0,11.42
-0.285,-0.0105,1.996,10.866,104.0,11.362
0.02,-0.0013,1.996,10.864,104.0,11.306
0.012,0.0026,1.996,10.863,80.0,11.236
-0.046,-0.0032,1.995,10.861,80.0,11.164
-0.011,-0.0086,1.994,10.861,80.0,11.078
-0.022,-0.0053,1.994,10.86,80.0,10.986
-0.024,-0.0035,1.994,10.86,80.0,10.898
-0.028,-0.0103,1.994,10.859,80.0,10.822
-0.028,0.0037,1.994,10.857,80.0,10.754
-0.045,0.0012,1.994,10.861,80.0,10.69
-0.144,-0.0009,1.991,10.869,80.0,10.642
-0.239,-0.0237,1.992,10.872,80.0,10.602
0.106,-0.0067,1.991,10.873,80.0,10.562
0.089,0.0012,1.991,10.874,80.0,10.518
0.087,-0.0023,1.991,10.876,80.0,10.49
0.066,-0.0137,1.989,10.878,80.0,10.468
-0.004,-0.0055,1.989,10.878,67.0,10.448
-0.012,-0.007,1.989,10.878,67.0,10.422
0.001,-0.0082,1.989,10.877,67.0,10.394
-0.008,-0.0062,1.989,10.876,67.0,10.372
0.027,-0.004,1.989,10.876,67.0,10.352
0.047,-0.0027,1.987,10.874,67.0,10.344
0.047,-0.0027,1.987,10.874,67.0,10.334
0.051,0.0016,1.986,10.873,67.0,10.326
0.036,-0.017,1.986,10.872,67.0,10.328
0.045,-0.0143,1.986,10.871,67.0,10.318
0.04,-0.0065,1.984,10.868,67.0,10.292
0.038,-0.0014,1.984,10.868,67.0,10.272
0.034,-0.0015,1.984,10.866,67.0,10.268
-0.28,0.0039,1.984,10.863,67.0,10.268
-0.28,0.0039,1.984,10.863,96.0,10.272
0.043,-0.0035,1.984,10.864,96.0,10.27
0.087,0.0009,1.984,10.867,96.0,10.268
0.022,-0.011,1.981,10.869,96.0,10.272
0.061,-0.017,1.981,10.877,96.0,10.274
0.066,-0.0073,1.981,10.883,96.0,10.278
0.066,-0.002,1.981,10.892,96.0,10.278
0.062,-0.0062,1.981,10.904,96.0,10.278
0.058,-0.0066,1.98,10.919,96.0,10.272
0.062,-0.0074,1.979,10.938,96.0,10.272
-0.32,0.0006,1.979,10.96,96.0,10.274
0.113,-0.0045,1.979,10.987,120.0,10.274
0.127,-0.0011,1.979,11.02,120.0,10.28
0.121,0.0006,1.977,11.057,120.0,10.28
0.043,-0.0117,1.976,11.1,120.0,10.282
0.057,-0.0149,1.976,11.145,120.0,10.282
0.053,-0.0029,1.976,11.194,120.0,10.266
0.04,-0.0073,1.976,11.245,120.0,10.25
0.028,-0.0034,1.976,11.296,120.0,10.25
0.023,-0.0016,1.976,11.348,120.0,10.258
0.016,-0.0033,1.976,11.398,120.0,10.262
-0.369,-0.0006,1.979,11.447,120.0,10.26
0.051,-0.0088,1.98,11.541,120.0,10.266
0.11,0.0043,1.981,11.582,120.0,10.256
0.028,-0.0073,1.982,11.622,120.0,10.246
0.03,-0.0131,1.984,11.654,83.0,10.244
0.026,-0.0079,1.985,11.683,83.0,10.246
0.023,-0.0093,1.986,11.71,83.0,10.256
0.014,-0.0067,1.989,11.732,83.0,10.262
0.014,-0.0032,1.991,11.751,83.0,10.266
0.002,-0.0044,1.995,11.779,83.0,10.26
-0.408,-0.0048,1.997,11.793,83.0,10.26
0.067,-0.0089,2.0,11.802,83.0,10.262
0.083,0.0011,2.002,11.809,83.0,10.262
0.042,0.0006,2.004,11.814,83.0,10.266
0.011,-0.0188,2.006,11.818,109.0,10.266
0.015,-0.0064,2.01,11.817,109.0,10.278
0.015,-0.0064,2.01,11.817,109.0,10.29
0.003,-0.0039,2.014,11.808,109.0,10.302
-0.006,-0.0061,2.016,11.8,109.0,10.294
-0.015,-0.0032,2.017,11.792,109.0,10.28
-0.008,-0.0031,2.019,11.782,109.0,10.282
-0.401,-0.0003,2.02,11.77,109.0,10.294
0.04,-0.0074,2.021,11.759,109.0,10.304
0.057,-0.0056,2.024,11.748,109.0,10.302
0.046,-0.003,2.024,11.736,109.0,10.306
-0.011,-0.0152,2.024,11.723,109.0,10.322
0.004,-0.0135,2.026,11.71,75.0,10.336
0.002,-0.0039,2.026,11.696,75.0,10.356
-0.005,-0.0015,2.029,11.682,75.0,10.378
-0.011,-0.0096,2.029,11.668,75.0,10.396
-0.01,-0.0049,2.029,11.656,75.0,10.418
-0.007,-0.003,2.029,11.643,75.0,10.456
-0.011,-0.0055,2.029,11.63,75.0,10.51
-0.332,0.0026,2.029,11.619,75.0,10.572
-0.038,-0.0119,2.03,11.606,75.0,10.632
0.053,0.0,2.03,11.596,75.0,10.698
0.066,0.0029,2.029,11.584,75.0,10.766
0.0,-0.0068,2.029,11.574,75.0,10.842
0.013,-0.0101,2.029,11.562,75.0,10.91
0.017,-0.0092,2.029,11.552,75.0,10.98
0.016,-0.0069,2.029,11.542,75.0,11.042
0.01,-0.0047,2.026,11.532,75.0,11.102
0.006,-0.0013,2.026,11.522,75.0,11.162
0.004,-0.0036,2.026,11.514,75.0,11.222
0.005,-0.006,2.026,11.504,75.0,11.272
-0.372,0.0005,2.026,11.494,75.0,11.32
0.048,-0.0088,2.024,11.486,75.0,11.376
0.064,-0.0055,2.024,11.477,75.0,11.434
0.06,0.001,2.024,11.467,75.0,11.494
-0.008,-0.0113,2.024,11.46,75.0,11.534
0.005,-0.0163,2.022,11.451,79.0,11.572
0.002,-0.0061,2.021,11.444,79.0,11.606
-0.001,-0.005,2.021,11.435,79.0,11.65
-0.003,-0.0094,2.021,11.427,79.0,11.688
-0.004,-0.0049,2.02,11.419,79.0,11.73
-0.009,-0.0062,2.019,11.411,79.0,11.766
-0.254,0.0051,2.019,11.404,79.0,11.804
-0.102,-0.0066,2.019,11.397,79.0,11.828
0.053,-0.0031,2.016,11.39,79.0,11.842
0.067,-0.001,2.016,11.384,79.0,11.842
0.0,-0.0063,2.016,11.378,79.0,11.782
0.004,-0.0122,2.014,11.373,81.0,11.774
-0.011,-0.0063,2.014,11.359,81.0,11.752
-0.011,-0.0063,2.014,11.359,81.0,11.732
-0.019,-0.006,2.011,11.348,81.0,11.704
-0.032,-0.006,2.011,11.342,81.0,11.682
-0.015,-0.0031,2.011,11.337,81.0,11.664
-0.41,-0.0009,2.009,11.332,81.0,11.648
0.034,-0.0072,2.009,11.327,81.0,11.62
0.032,-0.0093,2.009,11.322,81.0,11.588
0.001,0.0058,2.009,11.318,81.0,11.562
-0.017,-0.0067,2.007,11.315,81.0,11.538
-0.009,-0.0178,2.006,11.312,81.0,11.506
0.004,0.0022,2.006,11.308,81.0,11.456
0.039,-0.0107,2.004,11.304,81.0,11.412
0.086,0.0126,2.004,11.3,81.0,11.354
0.12,-0.0104,2.005,11.295,81.0,11.284
0.184,-0.0129,2.004,11.29,81.0,11.198
-0.148,0.0086,2.004,11.287,81.0,11.12
0.278,-0.0059,2.004,11.284,84.0,11.052
0.298,-0.0078,2.006,11.28,84.0,10.996
0.24,-0.008,2.009,11.276,84.0,10.938
0.226,-0.0059,2.01,11.272,84.0,10.888
0.224,-0.0027,2.009,11.265,84.0,10.852
0.204,-0.013,2.007,11.26,84.0,10.81
0.217,0.0014,2.005,11.252,84.0,10.78
0.229,-0.0042,2.005,11.247,84.0,10.744
0.237,0.0032,2.004,11.241,84.0,10.694
-0.118,-0.0114,2.005,11.235,84.0,10.654
0.269,-0.0017,2.004,11.23,90.0,10.626
0.297,-0.004,2.004,11.229,90.0,10.604
0.3,-0.0046,2.002,11.226,90.0,10.582
0.323,-0.0018,2.001,11.225,90.0,10.562
0.388,-0.0207,2.001,11.222,90.0,10.546
0.417,-0.0014,2.0,11.217,90.0,10.528
0.459,-0.0236,1.999,11.215,90.0,10.506
0.499,-0.0147,1.999,11.21,90.0,10.492
0.475,-0.0108,1.999,11.205,90.0,10.476
0.509,0.0009,1.999,11.202,90.0,10.468
0.01,-0.011,1.997,11.198,90.0,10.456
0.493,-0.0105,1.996,11.195,87.0,10.448
0.481,0.0091,1.996,11.192,87.0,10.44
0.397,-0.0056,1.995,11.19,87.0,10.432
0.308,-0.0043,1.994,11.185,87.0,10.422
0.267,-0.0136,1.994,11.18,87.0,10.416
0.225,-0.0025,1.992,11.177,87.0,10.414
0.187,-0.0081,1.991,11.174,87.0,10.414
0.139,-0.002,1.991,11.173,87.0,10.418
0.153,-0.0017,1.991,11.168,87.0,10.396
-0.362,-0.0038,1.991,11.167,87.0,10.372
0.154,-0.001,1.989,11.164,87.0,10.334
0.104,-0.004,1.989,11.159,87.0,10.288
0.038,-0.017,1.989,11.159,87.0,10.246
0.034,-0.004,1.987,11.155,87.0,10.226
0.024,-0.0034,1.986,11.153,87.0,10.224
0.0,-0.004,1.986,11.148,87.0,10.25
-0.039,0.0019,1.986,11.148,87.0,10.318
-0.049,-0.0019,1.984,11.145,87.0,10.412
-0.379,0.0005,1.984,11.142,87.0,10.466
-0.133,-0.0064,1.984,11.14,87.0,10.478
-0.002,-0.0026,1.982,11.139,87.0,10.47
0.002,-0.0057,1.981,11.137,87.0,10.404
-0.088,0.0002,1.981,11.134,87.0,10.324
-0.09,-0.0084,1.981,11.133,87.0,10.256
-0.087,-0.015,1.979,11.124,87.0,10.246
-0.096,-0.0054,1.979,11.123,87.0,10.262
-0.098,-0.0038,1.979,11.119,87.0,10.302
-0.105,-0.0001,1.979,11.118,87.0,10.348
-0.101,-0.0105,1.979,11.113,87.0,10.384
-0.531,-0.0015,1.979,11.111,87.0,10.396
-0.07,-0.0072,1.976,11.108,87.0,10.406
-0.035,-0.0066,1.976,11.107,87.0,10.406
-0.032,0.0035,1.976,11.102,87.0,10.384
-0.112,-0.0047,1.976,11.1,87.0,10.366
-0.095,-0.0129,1.975,11.097,87.0,10.334
-0.095,-0.0048,1.974,11.088,87.0,10.346
-0.111,-0.0085,1.974,11.083,87.0,10.4
-0.112,-0.0108,1.974,11.081,87.0,10.44
-0.126,-0.0078,1.974,11.078,87.0,10.462
-0.102,-0.0017,1.971,11.073,87.0,10.492
-0.564,-0.0069,1.971,11.07,87.0,10.55
-0.045,-0.0072,1.971,11.065,87.0,10.622
-0.027,0.0007,1.971,11.061,87.0,10.66
-0.047,-0.0026,1.971,11.058,87.0,10.658
-0.115,-0.0039,1.971,11.055,87.0,10.632
-0.097,-0.005,1.97,11.046,87.0,10.594
-0.097,-0.005,1.97,11.046,87.0,10.578
-0.098,-0.0022,1.969,11.039,87.0,10.57
-0.096,0.0118,1.969,11.035,87.0,10.562
-0.097,0.0061,1.969,11.031,87.0,10.538
-0.081,-0.0056,1.969,11.029,87.0,10.506
-0.469,-0.0031,1.967,11.025,87.0,10.476
-0.012,-0.0112,1.966,11.025,87.0,10.456
0.001,-0.0074,1.966,11.02,87.0,10.446
-0.066,-0.0019,1.966,11.018,79.0,10.46
-0.053,0.0062,1.965,11.011,79.0,10.512
-0.044,-0.0016,1.965,11.006,79.0,10.57
-0.05,-0.009,1.964,11.004,79.0,10.624
-0.055,-0.0132,1.964,11.0,79.0,10.632
-0.06,-0.0155,1.964,10.998,79.0,10.598
-0.21,-0.0039,1.964,10.993,79.0,10.538
-0.211,-0.008,1.964,10.99,79.0,10.494
0.017,-0.0047,1.964,10.988,79.0,10.468
0.01,0.0023,1.961,10.985,85.0,10.426
-0.023,-0.0176,1.961,10.981,85.0,10.4
0.009,-0.0293,1.961,10.979,85.0,10.418
0.002,-0.019,1.961,10.974,85.0,10.472
0.0,-0.0079,1.96,10.969,85.0,10.518
-0.011,-0.013,1.959,10.968,85.0,10.54
-0.012,-0.0071,1.96,10.966,85.0,10.528
-0.015,-0.005,1.959,10.965,85.0,10.512
-0.364,-0.0006,1.959,10.965,85.0,10.504
0.019,-0.0025,1.957,10.965,85.0,10.518
0.077,-0.0058,1.956,10.965,85.0,10.536
0.094,0.0059,1.956,10.965,85.0,10.55
0.02,-0.0018,1.956,10.964,85.0,10.544
0.035,-0.0079,1.954,10.963,86.0,10.522
0.028,0.0025,1.954,10.958,86.0,10.502
0.017,-0.0053,1.954,10.954,86.0,10.492
0.017,-0.0039,1.954,10.948,86.0,10.48
0.029,-0.0001,1.954,10.946,86.0,10.468
-0.407,-0.0022,1.954,10.944,86.0,10.458
0.066,-0.0119,1.954,10.941,86.0,10.454
0.069,-0.0026,1.952,10.939,86.0,10.46
0.0,-0.003,1.951,10.936,86.0,10.47
0.006,-0.0069,1.951,10.936,88.0,10.478
0.018,-0.0073,1.951,10.933,88.0,10.472
0.013,-0.0161,1.95,10.932,88.0,10.476
0.004,-0.004,1.95,10.933,88.0,10.482
0.009,-0.0041,1.949,10.933,88.0,10.494
0.014,-0.0008,1.949,10.936,88.0,10.504
0.045,-0.0052,1.949,10.934,88.0,10.516
-0.498,-0.013,1.949,10.936,88.0,10.526
0.064,-0.0056,1.949,10.936,88.0,10.536
0.087,-0.0045,1.949,10.936,88.0,10.546
0.06,-0.0025,1.948,10.937,88.0,10.54
0.018,-0.006,1.947,10.938,88.0,10.536
0.028,-0.0035,1.947,10.936,83.0,10.532
0.032,-0.0057,1.947,10.936,83.0,10.534
0.037,-0.0068,1.947,10.934,83.0,10.536
0.034,0.0053,1.947,10.936,83.0,10.54
0.031,-0.0079,1.945,10.933,83.0,10.54
0.06,-0.0051,1.944,10.933,83.0,10.546
-0.412,-0.0012,1.944,10.932,83.0,10.546
0.121,-0.0088,1.944,10.931,83.0,10.544
0.141,0.0009,1.944,10.931,83.0,10.546
0.106,-0.0004,1.944,10.931,83.0,10.554
0.067,-0.0049,1.943,10.931,83.0,10.558
0.075,-0.0007,1.94,10.929,83.0,10.56
0.058,0.0027,1.94,10.928,83.0,10.568
0.05,-0.0101,1.94,10.928,83.0,10.604
0.045,-0.0127,1.939,10.927,83.0,10.648
0.047,-0.0097,1.94,10.928,83.0,10.678
0.058,0.0045,1.939,10.931,83.0,10.734
-0.254,-0.0051,1.939,10.932,83.0,10.802
-0.044,0.0004,1.939,10.934,84.0,10.864
0.117,-0.0055,1.939,10.939,84.0,10.92
0.123,0.0043,1.939,10.942,84.0,10.978
0.04,-0.0113,1.939,10.947,84.0,11.234
0.062,-0.0139,1.937,10.951,84.0,11.254
0.067,-0.0056,1.937,10.954,84.0,11.264
0.063,-0.0044,1.937,10.959,84.0,11.272
0.062,-0.0101,1.935,10.964,84.0,11.28
0.072,-0.0125,1.935,10.97,84.0,11.296
0.055,-0.0076,1.937,10.974,84.0,11.312
0.09,0.0051,1.937,10.977,84.0,11.328
-0.276,-0.0082,1.935,10.98,84.0,11.344
0.121,-0.0117,1.937,10.983,84.0,11.372
0.099,0.018,1.934,10.985,84.0,11.394
0.01,-0.0005,1.935,10.989,84.0,11.42
0.063,-0.0272,1.934,10.991,84.0,11.45
0.064,-0.0161,1.934,10.993,84.0,11.476
0.069,-0.0106,1.934,10.991,84.0,11.496
0.063,-0.0062,1.934,10.99,84.0,11.516
0.055,-0.0078,1.934,10.991,84.0,11.534
0.035,-0.0058,1.934,10.991,84.0,11.53
-0.408,-0.0095,1.933,10.988,84.0,11.512
0.118,-0.0081,1.934,10.988,87.0,11.48
0.125,-0.0018,1.934,10.988,87.0,11.444
0.315,-0.0011,1.934,10.988,87.0,11.402
0.292,-0.018,1.934,10.988,87.0,11.366
0.283,-0.0066,1.934,10.985,87.0,11.32
0.114,0.0025,1.934,10.983,87.0,11.266
0.114,0.0025,1.934,10.983,87.0,11.21
0.116,-0.0081,1.934,10.98,87.0,11.152
0.238,-0.0029,1.934,10.98,87.0,11.088
0.24,-0.0064,1.934,10.979,87.0,11.032
0.28,-0.002,1.934,10.98,87.0,10.986
0.213,-0.0115,1.932,10.98,87.0,10.924
0.237,-0.0151,1.932,10.983,87.0,10.868
0.157,-0.0134,1.934,10.984,87.0,10.82
0.124,-0.0015,1.934,10.985,87.0,10.788
0.094,0.0,1.934,10.988,87.0,10.764
0.074,-0.0027,1.934,10.991,87.0,10.748
0.072,-0.0018,1.934,10.995,87.0,10.726
-0.36,-0.0027,1.934,10.999,87.0,10.694
0.111,-0.0016,1.932,11.004,94.0,10.672
0.116,0.0063,1.932,11.01,94.0,10.658
0.097,-0.0007,1.932,11.016,94.0,10.646
0.007,-0.0121,1.932,11.022,94.0,10.636
0.001,-0.014,1.929,11.028,94.0,10.626
0.002,-0.0068,1.93,11.031,90.0,10.622
-0.013,-0.0119,1.929,11.035,90.0,10.62
0.127,0.0048,1.929,11.039,90.0,10.612
0.439,-0.0039,1.929,11.043,90.0,10.606
0.14,0.0112,1.929,11.048,90.0,10.598
-0.319,-0.0135,1.927,11.057,90.0,10.58
0.035,-0.0038,1.927,11.061,90.0,10.568
-0.03,0.0042,1.924,11.078,90.0,10.546
-0.131,-0.0182,1.924,11.086,90.0,10.532
-0.14,-0.0059,1.92,11.09,90.0,10.528
-0.135,-0.0239,1.919,11.091,90.0,10.538
-0.148,0.0142,1.917,11.095,90.0,10.54
-0.158,-0.0298,1.915,11.098,90.0,10.54
-0.131,0.0067,1.914,11.1,90.0,10.544
-0.631,-0.0035,1.914,11.098,90.0,10.54
-0.157,0.0099,1.914,11.078,90.0,10.532
-0.158,-0.033,1.914,11.083,90.0,10.532
-0.155,0.0175,1.914,11.097,90.0,10.528
-0.218,-0.0019,1.912,11.106,90.0,10.526
-0.2,-0.0357,1.912,11.12,90.0,10.524
-0.184,-0.0223,1.91,11.139,90.0,10.526
-0.152,-0.0281,1.909,11.169,90.0,10.532
-0.175,-0.0178,1.909,11.211,90.0,10.536
-0.195,-0.0286,1.909,11.26,90.0,10.534
-0.687,0.0188,1.909,11.321,90.0,10.536
-0.166,0.0026,1.909,11.392,90.0,10.548
-0.141,-0.0064,1.909,11.472,90.0,10.556
-0.14,-0.0081,1.908,11.55,90.0,10.568
-0.22,0.0109,1.909,11.626,90.0,10.562
-0.197,0.0009,1.909,11.691,90.0,10.546
-0.194,0.0041,1.909,11.749,90.0,10.532
-0.203,0.0114,1.909,11.803,90.0,10.528
-0.213,-0.0167,1.91,11.86,90.0,10.524
-0.207,0.0135,1.912,11.925,90.0,10.522
-0.634,-0.0032,1.913,11.983,90.0,10.524
-0.151,0.0003,1.914,12.044,90.0,10.532
-0.139,-0.025,1.917,12.1,90.0,10.538
-0.153,-0.004,1.92,12.195,90.0,10.546
-0.192,-0.0133,1.924,12.23,90.0,10.55
-0.19,0.0015,1.925,12.248,90.0,10.544
-0.183,-0.0117,1.928,12.263,90.0,10.538
-0.19,0.0091,1.929,12.283,90.0,10.526
-0.179,-0.0089,1.933,12.3,90.0,10.522
-0.602,-0.0128,1.935,12.304,90.0,10.524
-0.142,-0.0086,1.938,12.295,90.0,10.532
-0.042,-0.0061,1.943,12.283,90.0,10.534
-0.13,-0.0075,1.948,12.254,90.0,10.538
-0.257,-0.007,1.952,12.225,90.0,10.544
-0.234,-0.0118,1.957,12.194,90.0,10.55
-0.214,-0.0017,1.962,12.171,90.0,10.556
-0.187,0.0054,1.965,12.145,90.0,10.554
-0.187,-0.0085,1.969,12.112,90.0,10.556
-0.175,-0.0059,1.97,12.078,90.0,10.544
-0.537,-0.0028,1.974,12.041,90.0,10.544
-0.109,-0.0091,1.974,12.009,90.0,10.556
-0.096,0.0019,1.976,11.978,90.0,10.57
-0.142,-0.0016,1.979,11.944,130.0,10.588
-0.106,-0.0065,1.979,11.921,130.0,10.61
-0.076,-0.0023,1.979,11.895,130.0,10.646
-0.064,-0.0055,1.981,11.865,130.0,10.692
-0.055,-0.0024,1.981,11.835,130.0,10.746
-0.04,-0.0027,1.984,11.807,130.0,10.804
-0.433,0.0007,1.984,11.782,130.0,10.868
0.048,-0.0089,1.986,11.734,97.0,10.932
0.048,-0.0089,1.986,11.734,97.0,11.0
0.058,0.0044,1.986,11.698,97.0,11.066
0.028,-0.0121,1.986,11.694,97.0,11.126
0.026,0.0006,1.986,11.695,97.0,11.184
0.027,-0.0068,1.985,11.705,97.0,11.24
0.012,-0.0052,1.984,11.73,97.0,11.296
0.048,-0.0062,1.984,11.769,97.0,11.354
-0.425,-0.0074,1.985,11.82,97.0,11.422
0.082,0.0012,1.984,11.882,95.0,11.48
0.089,-0.0017,1.984,11.961,95.0,11.524
0.065,0.0028,1.984,12.05,95.0,11.562
0.03,-0.0113,1.984,12.142,95.0,11.596
0.045,-0.0088,1.984,12.237,95.0,11.632
0.036,-0.0044,0.0,12.33,95.0,11.676
0.029,-0.007,1.984,12.416,95.0,11.716
0.021,0.0028,1.984,12.497,95.0,11.744
-0.237,-0.0037,1.984,12.585,95.0,11.762
-0.11,-0.0052,1.986,12.672,96.0,11.766
0.086,-0.0068,1.989,12.762,96.0,11.76
0.092,-0.0038,1.991,12.849,96.0,11.75
0.023,-0.012,1.994,12.931,96.0,11.73
0.029,-0.0022,1.997,12.99,96.0,11.704
0.015,-0.0077,2.0,13.034,96.0,11.682
0.017,-0.0051,2.005,13.066,96.0,11.656
-0.002,-0.0069,2.01,13.083,96.0,11.628
-0.027,0.0002,2.015,13.089,96.0,11.588
-0.431,-0.0073,2.02,13.088,96.0,11.544
-0.073,-0.0106,2.026,13.087,96.0,11.502
-0.011,0.0023,2.032,13.092,96.0,11.476
-0.009,-0.0019,2.039,13.097,96.0,11.44
-0.057,-0.0068,2.047,13.111,96.0,11.388
-0.005,-0.0126,2.055,13.127,96.0,11.332
0.007,0.0012,2.063,13.132,96.0,11.268
0.004,0.0083,2.069,13.123,96.0,11.208
0.004,0.0277,2.077,13.108,96.0,11.152
0.047,0.0102,2.094,13.065,96.0,11.104
0.105,-0.0174,2.103,13.04,96.0,11.058
0.135,-0.0152,2.113,13.017,96.0,11.014
0.108,-0.0157,2.12,12.992,96.0,10.974
0.137,-0.017,2.128,12.966,96.0,10.942
0.185,-0.0153,2.134,12.938,96.0,10.91
0.232,-0.0198,2.141,12.908,96.0,10.886
0.282,-0.0078,2.146,12.876,96.0,10.864
0.311,-0.0256,2.151,12.843,96.0,10.838
0.378,-0.0029,2.159,12.812,96.0,10.822
0.017,-0.0044,2.163,12.782,96.0,10.798
0.539,-0.0012,0.0,12.752,93.0,10.782
0.654,-0.007,2.171,12.724,93.0,10.77
0.63,-0.0053,2.176,12.701,93.0,10.764
0.6,-0.0083,2.181,12.678,93.0,10.754
0.62,-0.0066,2.185,12.659,93.0,10.742
0.6,0.0008,2.188,12.642,93.0,10.732
0.573,-0.0031,2.19,12.633,93.0,10.72
0.548,-0.0108,2.193,12.632,93.0,10.72
0.524,0.0015,2.193,12.643,93.0,10.714
0.109,-0.0053,2.193,12.667,93.0,10.692
0.453,-0.0035,2.193,12.703,93.0,10.67
0.509,0.0016,2.191,12.746,93.0,10.664
0.439,-0.0015,2.19,12.804,93.0,10.664
0.344,-0.0136,2.188,12.875,93.0,10.658
0.327,0.0017,2.184,12.953,93.0,10.646
0.217,-0.005,2.178,13.127,93.0,10.642
0.17,-0.008,2.176,13.209,93.0,10.642
0.153,-0.0055,2.175,13.288,93.0,10.648
-0.284,0.0011,2.176,13.358,93.0,10.65
0.2,-0.0074,2.179,13.415,95.0,10.648
0.151,-0.0048,2.183,13.474,95.0,10.644
0.145,-0.0074,2.186,13.524,95.0,10.638
0.118,-0.01,2.191,13.569,95.0,10.638
0.121,-0.0036,0.0,13.655,95.0,10.634
0.071,-0.0012,2.204,13.702,95.0,10.626
0.05,0.0005,2.209,13.758,95.0,10.62
0.05,-0.0086,2.214,13.828,95.0,10.622
-0.369,-0.0136,2.218,13.901,95.0,10.626
0.076,0.001,2.226,13.972,95.0,10.642
0.074,0.0067,2.233,14.045,95.0,10.648
0.039,0.0024,2.239,14.115,95.0,10.66
0.0,-0.0083,2.248,14.183,95.0,10.656
-0.021,-0.0038,2.257,14.248,95.0,10.642
-0.04,-0.0049,2.266,14.309,95.0,10.636
-0.041,-0.0012,2.274,14.365,95.0,10.626
-0.061,-0.0044,2.283,14.415,95.0,10.612
-0.045,-0.0015,2.292,14.461,95.0,10.598
-0.461,-0.0001,2.302,14.5,95.0,10.598
-0.026,0.0248,2.314,14.535,95.0,10.602
-0.015,-0.0237,2.325,14.565,95.0,10.606
-0.035,-0.0204,2.338,14.593,126.0,10.614
-0.057,-0.0126,2.35,14.622,126.0,10.624
-0.062,-0.014,2.365,14.65,126.0,10.626
-0.079,-0.0063,2.38,14.668,126.0,10.634
-0.072,0.0224,2.395,14.681,126.0,10.638
-0.044,0.0206,2.411,14.685,126.0,10.642
0.011,0.0107,2.429,14.689,126.0,10.634
-0.375,-0.022,2.446,14.689,126.0,10.62
0.093,-0.0111,2.462,14.681,126.0,10.604
0.129,-0.008,2.477,14.67,126.0,10.606
0.078,-0.0052,2.494,14.654,126.0,10.626
0.104,-0.0033,2.512,14.635,126.0,10.666
0.098,0.0057,2.529,14.613,126.0,10.722
0.14,0.036,2.547,14.591,126.0,10.788
0.17,-0.0165,2.563,14.576,126.0,10.848
0.132,-0.0522,2.576,14.567,126.0,10.902
0.089,-0.0131,2.587,14.565,126.0,10.944
-0.243,-0.0191,2.607,14.572,126.0,10.98
0.195,-0.0048,2.617,14.575,126.0,11.01
0.123,-0.0048,2.625,14.578,126.0,11.032
0.091,-0.0178,2.634,14.58,126.0,11.052
0.079,-0.0057,2.639,14.574,126.0,11.054
0.058,-0.008,2.646,14.569,126.0,11.054
0.048,-0.0057,2.65,14.56,126.0,11.048
0.026,0.0019,2.654,14.55,126.0,11.036
-0.016,-0.0032,2.658,14.535,126.0,11.022
-0.334,-0.0105,2.663,14.518,126.0,11.012
0.051,0.0002,2.668,14.499,126.0,10.998
0.047,-0.0033,2.673,14.478,126.0,10.99
-0.008,-0.0008,2.676,14.458,121.0,10.976
0.0,-0.0109,2.68,14.434,121.0,10.96
0.0,-0.0019,2.682,14.409,121.0,10.922
-0.012,-0.002,2.686,14.385,121.0,10.914
-0.021,-0.0077,2.688,14.36,121.0,10.888
-0.043,-0.0072,2.69,14.333,121.0,10.858
-0.025,-0.0049,2.692,14.304,121.0,10.832
-0.429,0.0048,2.695,14.275,121.0,10.812
0.011,-0.0039,2.695,14.245,121.0,10.792
0.012,-0.0052,2.695,14.212,121.0,10.772
-0.032,-0.0005,2.695,14.176,90.0,10.754
-0.032,-0.0137,2.695,14.137,90.0,10.742
-0.01,-0.0044,2.692,14.099,90.0,10.732
-0.024,-0.0031,2.69,14.061,90.0,10.724
-0.022,-0.0065,2.69,14.021,90.0,10.714
-0.017,-0.0004,2.69,13.983,90.0,10.7
-0.013,-0.0071,2.687,13.943,90.0,10.69
-0.39,-0.0054,2.685,13.906,90.0,10.678
0.011,-0.0028,2.683,13.87,90.0,10.668
0.051,-0.0054,2.68,13.833,90.0,10.66
0.059,-0.0034,2.672,13.765,89.0,10.66
0.003,-0.0089,2.668,13.732,89.0,10.656
0.003,-0.0054,2.661,13.699,89.0,10.656
-0.011,-0.0044,2.656,13.67,89.0,10.654
-0.019,-0.0066,2.651,13.645,89.0,10.66
-0.033,-0.005,2.644,13.615,89.0,10.658
-0.031,-0.004,2.639,13.588,89.0,10.644
-0.452,-0.0058,2.631,13.56,89.0,10.628
0.001,-0.0074,2.626,13.533,89.0,10.62
0.024,-0.0007,2.619,13.507,89.0,10.62
0.01,-0.0031,2.614,13.484,85.0,10.622
-0.053,-0.0089,2.606,13.437,85.0,10.62
-0.04,-0.0042,2.594,13.414,85.0,10.616
-0.052,-0.0032,2.586,13.394,85.0,10.614
-0.062,-0.0104,2.58,13.374,85.0,10.61
-0.077,-0.003,2.574,13.354,85.0,10.61
-0.065,-0.0069,2.568,13.334,85.0,10.61
-0.475,-0.0025,2.562,13.318,85.0,10.612
-0.021,-0.0039,2.557,13.301,85.0,10.612
-0.004,-0.0018,2.549,13.286,85.0,10.612
-0.021,-0.0018,2.544,13.27,85.0,10.612
-0.074,-0.0077,2.538,13.256,85.0,10.616
-0.06,-0.0096,2.532,13.241,85.0,10.62
-0.072,-0.0093,2.527,13.229,85.0,10.622
-0.082,-0.0108,2.519,13.215,85.0,10.624
-0.072,-0.0077,2.514,13.202,85.0,10.626
-0.099,-0.0081,2.512,13.191,85.0,10.632
-0.117,-0.0073,2.505,13.18,85.0,10.624
-0.495,0.0017,2.499,13.17,85.0,10.61
-0.071,0.0006,2.496,13.158,85.0,10.602
-0.04,-0.0103,2.492,13.147,85.0,10.606
-0.049,0.0024,2.487,13.137,85.0,10.606
-0.114,-0.0089,2.482,13.128,85.0,10.602
-0.076,-0.0086,2.477,13.117,85.0,10.598
-0.08,-0.0028,2.475,13.108,85.0,10.6
-0.089,-0.0092,2.47,13.098,85.0,10.602
-0.08,-0.0049,2.465,13.088,85.0,10.604
-0.088,0.001,2.461,13.078,85.0,10.604
-0.057,0.0003,2.457,13.068,85.0,10.61
-0.503,-0.0044,2.452,13.06,85.0,10.614
-0.035,-0.0054,2.45,13.051,85.0,10.612
-0.019,0.0011,2.446,13.042,85.0,10.606
-0.063,0.0192,2.441,13.035,85.0,10.6
-0.095,-0.0226,2.44,13.026,85.0,10.602
-0.094,-0.0112,2.436,13.017,85.0,10.604
-0.103,-0.0128,2.434,13.008,85.0,10.616
-0.138,-0.0066,2.43,13.001,85.0,10.626
-0.142,-0.0058,2.427,12.992,85.0,10.634
-0.155,-0.0091,2.424,12.983,85.0,10.638
-0.303,0.0015,2.421,12.975,85.0,10.626
-0.406,0.0054,2.419,12.968,85.0,10.606
-0.062,-0.0134,2.415,12.959,85.0,10.6
-0.029,0.0026,2.412,12.95,86.0,10.598
-0.085,0.0,2.41,12.944,86.0,10.6
-0.1,-0.0101,2.406,12.936,86.0,10.602
-0.094,-0.0073,2.404,12.929,86.0,10.602
-0.092,-0.003,2.401,12.921,86.0,10.606
-0.087,-0.0071,2.397,12.915,86.0,10.61
-0.091,-0.0023,2.395,12.909,86.0,10.61
-0.082,0.0031,2.392,12.903,86.0,10.604
-0.497,0.0148,2.39,12.895,86.0,10.606
0.007,0.0227,2.387,12.891,86.0,10.606
0.052,0.0167,2.385,12.884,86.0,10.61
0.066,-0.0104,2.382,12.881,86.0,10.604
-0.047,-0.0165,2.38,12.873,86.0,10.606
-0.09,-0.0237,2.377,12.868,87.0,10.61
-0.047,-0.0252,2.374,12.863,87.0,10.612
-0.047,-0.0283,2.372,12.858,87.0,10.612
-0.002,-0.0189,2.369,12.856,87.0,10.614
-0.028,-0.0257,2.368,12.851,87.0,10.62
0.0,-0.0188,2.365,12.846,87.0,10.604
-0.494,-0.0022,2.363,12.841,87.0,10.606
-0.006,0.0009,2.362,12.836,85.0,10.604
0.033,-0.0011,2.359,12.831,85.0,10.602
0.01,0.0043,2.357,12.826,85.0,10.598
-0.014,0.0023,2.352,12.815,85.0,10.598
-0.03,0.0001,2.348,12.811,85.0,10.598
-0.03,-0.0017,2.347,12.806,85.0,10.598
-0.014,-0.01,2.344,12.801,85.0,10.598
-0.055,-0.0047,2.342,12.796,85.0,10.6
-0.396,-0.0074,2.342,12.793,85.0,10.604
0.109,0.0014,2.338,12.789,85.0,10.612
0.084,-0.0028,2.333,12.776,85.0,10.614
0.023,-0.0131,2.332,12.773,85.0,10.612
0.016,-0.0028,2.328,12.769,85.0,10.612
0.009,-0.0011,2.327,12.766,85.0,10.604
0.052,-0.0093,2.324,12.764,85.0,10.602
0.184,0.001,2.322,12.763,85.0,10.598
-0.074,-0.0035,2.32,12.761,85.0,10.604
0.433,-0.0031,2.319,12.76,60.0,10.612
0.524,0.0015,2.317,12.758,60.0,10.622
0.54,-0.007,2.315,12.756,60.0,10.624
0.457,-0.0082,2.313,12.755,60.0,10.616
0.435,-0.0082,2.312,12.754,60.0,10.604
0.397,-0.0058,2.309,12.753,60.0,10.6
0.342,-0.007,2.307,12.75,60.0,10.6
0.32,-0.0078,2.307,12.748,60.0,10.598
0.187,0.0065,2.304,12.745,60.0,10.598
-0.03,-0.0041,2.302,12.743,60.0,10.598
-0.065,-0.007,2.302,12.739,60.0,10.598
0.225,-0.0052,2.3,12.738,60.0,10.594
0.31,-0.0043,2.298,12.735,60.0,10.598
0.29,-0.006,2.295,12.731,60.0,10.598
0.47,-0.0016,2.292,12.729,60.0,10.594
0.503,-0.0106,2.291,12.724,60.0,10.594
0.544,-0.0051,2.29,12.719,60.0,10.598
0.573,-0.0103,2.288,12.714,60.0,10.602
0.646,-0.006,2.286,12.709,60.0,10.606
0.186,-0.0064,2.285,12.704,60.0,10.61
0.614,0.019,2.282,12.699,52.0,10.606
0.625,0.0024,2.278,12.689,52.0,10.61
0.608,-0.02,2.277,12.687,52.0,10.612
0.584,-0.0016,2.277,12.683,52.0,10.616
0.515,-0.0164,2.275,12.676,52.0,10.614
0.516,-0.0037,2.273,12.669,52.0,10.616
0.345,0.0084,2.272,12.663,52.0,10.612
0.309,-0.0112,2.27,12.655,52.0,10.602
-0.072,-0.0094,2.266,12.649,52.0,10.598
0.315,-0.0131,2.265,12.646,52.0,10.594
0.35,-0.0168,2.262,12.644,52.0,10.6
0.387,-0.0094,2.262,12.639,52.0,10.6
0.368,-0.0348,2.262,12.634,52.0,10.594
0.336,-0.0154,2.258,12.627,52.0,10.598
0.181,-0.029,2.257,12.622,52.0,10.602
0.335,-0.0223,2.257,12.615,52.0,10.61
0.322,-0.0123,2.255,12.608,52.0,10.616
0.174,-0.0031,2.253,12.602,52.0,10.62
-0.158,0.0094,2.252,12.597,52.0,10.638
-0.087,-0.0045,2.251,12.592,52.0,10.656
0.194,0.0035,2.248,12.589,52.0,10.658
0.198,-0.0046,2.247,12.585,52.0,10.656
0.14,-0.0058,2.246,12.584,52.0,10.664
0.102,-0.0056,2.245,12.58,52.0,10.672
0.095,-0.0111,2.243,12.577,52.0,10.684
0.03,-0.0083,2.242,12.572,52.0,10.712
0.01,-0.0053,2.241,12.57,52.0,10.738
-0.004,0.0013,2.24,12.567,52.0,10.78
-0.005,-0.0003,2.237,12.565,52.0,10.808
-0.44,-0.003,2.237,12.561,52.0,10.802
0.019,-0.0032,2.237,12.557,52.0,10.78
0.008,-0.0043,2.235,12.555,52.0,10.782
-0.009,0.0022,2.235,12.551,52.0,10.8
-0.077,-0.0027,2.232,12.547,52.0,10.826
-0.057,-0.0023,2.232,12.544,52.0,10.858
-0.065,-0.007,2.231,12.54,52.0,0.0
-0.078,-0.0097,2.23,12.537,52.0,0.0
-0.09,-0.0025,2.228,12.533,52.0,10.92
-0.093,-0.008,2.227,12.529,52.0,10.932
-0.515,-0.0006,2.227,12.525,52.0,10.926
-0.087,-0.0063,2.225,12.523,52.0,10.908
-0.052,-0.0005,2.223,12.519,52.0,10.88
-0.064,-0.0012,2.222,12.515,52.0,10.86
-0.15,-0.0022,2.222,12.514,52.0,10.852
-0.209,-0.0068,2.222,12.509,52.0,10.854
-0.022,-0.0077,2.22,12.505,52.0,10.858
-0.088,-0.0051,2.218,12.5,52.0,10.858
-0.151,-0.0008,2.217,12.495,52.0,10.856
-0.162,-0.0051,2.217,12.493,52.0,10.846
-0.221,0.0008,2.215,12.489,52.0,10.842
-0.572,-0.0106,2.215,12.488,52.0,10.838
-0.117,-0.0029,2.213,12.487,52.0,10.838
-0.085,-0.0015,2.213,12.487,52.0,10.856
-0.181,0.0053,2.211,12.487,52.0,10.904
-0.224,-0.0086,2.21,12.49,52.0,10.946
-0.166,-0.0079,2.208,12.494,52.0,10.98
-0.195,-0.0051,2.208,12.499,52.0,10.998
-0.173,-0.0082,2.206,12.505,52.0,11.004
-0.101,-0.0058,2.205,12.511,52.0,11.008
-0.099,-0.0106,2.203,12.518,52.0,11.002
-0.594,-0.0065,2.203,12.525,52.0,10.996
-0.078,-0.0059,2.203,12.533,52.0,10.992
-0.029,-0.002,2.201,12.539,52.0,10.988
0.0,-0.0025,2.2,12.545,52.0,10.97
-0.057,-0.0057,2.199,12.55,52.0,10.974
-0.045,-0.0072,2.198,12.557,52.0,10.978
-0.053,-0.004,2.198,12.56,52.0,10.986
-0.041,-0.0096,2.196,12.564,52.0,10.986
-0.009,-0.0012,2.195,12.566,52.0,10.97
-0.008,-0.0084,2.194,12.567,52.0,10.958
-0.472,-0.0014,2.194,12.569,52.0,10.944
0.023,-0.0094,2.193,12.569,52.0,10.926
0.064,-0.0023,2.193,12.571,52.0,10.912
0.103,-0.0065,2.193,12.571,52.0,10.92
0.011,-0.0018,2.193,12.571,52.0,10.932
-0.007,-0.0012,2.191,12.574,52.0,10.942
0.009,-0.0052,2.19,12.575,52.0,10.936
0.011,-0.0097,2.189,12.577,52.0,10.924
0.027,-0.0053,2.188,12.582,52.0,10.908
0.117,-0.0084,2.188,12.587,52.0,10.89
-0.166,-0.0009,2.186,12.606,52.0,10.866
0.12,0.0066,2.185,12.621,52.0,10.836
0.069,-0.0053,2.183,12.637,81.0,10.812
0.0,-0.0098,2.184,12.656,81.0,10.78
0.01,-0.0051,2.183,12.676,81.0,10.754
-0.069,-0.0137,2.183,12.696,81.0,10.746
-0.117,-0.0064,2.183,12.715,81.0,10.754
-0.229,-0.0078,2.18,12.733,81.0,10.76
-0.002,-0.0023,2.18,12.769,81.0,10.766
0.013,0.0012,2.178,12.784,81.0,10.766
0.06,-0.0012,2.178,12.799,81.0,10.768
0.103,0.0,2.178,12.809,111.0,10.77
0.1,-0.0073,2.178,12.821,111.0,10.78
-0.033,-0.004,2.176,12.829,111.0,10.776
-0.03,-0.013,2.175,12.837,111.0,10.764
-0.004,0.0007,2.175,12.841,111.0,10.764
-0.027,-0.0013,2.175,12.846,111.0,10.766
-0.024,-0.0067,2.174,12.853,111.0,10.77
-0.578,-0.0134,2.174,12.861,111.0,10.77
-0.06,-0.0062,2.175,12.869,111.0,10.772
-0.07,-0.0062,2.174,12.879,111.0,10.766
0.079,-0.005,2.174,12.893,111.0,10.758
-0.041,-0.0091,2.173,12.909,111.0,10.754
-0.004,-0.0043,2.173,12.929,111.0,10.75
0.061,-0.0051,2.173,12.947,111.0,10.75
-0.037,-0.008,2.173,12.967,111.0,10.754
-0.038,-0.0025,2.173,12.989,111.0,10.756
-0.062,0.0021,2.173,13.01,143.0,10.756
-0.361,-0.0071,2.173,13.029,143.0,10.758
0.053,-0.002,2.173,13.045,143.0,10.758
0.057,0.0054,2.173,13.057,143.0,10.77
-0.052,-0.0107,2.173,13.068,143.0,10.758
-0.191,-0.0109,2.173,13.078,143.0,10.77
-0.054,-0.0131,2.173,13.087,145.0,10.758
-0.058,-0.0063,2.173,13.092,145.0,10.742
0.009,-0.0052,2.174,13.094,145.0,10.738
-0.03,-0.0049,2.174,13.096,145.0,10.738
-0.198,-0.0012,2.175,13.097,145.0,10.738
-0.325,-0.0062,2.178,13.094,145.0,10.742
0.058,-0.0021,2.178,13.092,145.0,10.746
0.07,0.0033,2.179,13.087,145.0,10.746
0.137,-0.0046,0.0,13.077,145.0,10.754
0.041,-0.0068,2.181,13.07,145.0,10.75
-0.094,-0.0038,2.183,13.063,145.0,10.75
-0.177,-0.009,2.183,13.052,145.0,10.75
-0.172,-0.0066,2.183,13.042,145.0,10.75
-0.483,-0.0023,2.184,13.031,145.0,10.75
-0.182,-0.0041,2.185,13.018,145.0,10.746
-0.09,0.0016,2.185,13.006,145.0,10.738
-0.078,-0.0038,2.188,12.993,145.0,10.732
-0.138,-0.0062,2.186,12.98,145.0,10.726
-0.105,-0.0062,2.186,12.969,145.0,10.702
-0.136,-0.0105,2.186,12.956,145.0,10.68
-0.156,-0.0216,2.188,12.943,145.0,10.622
-0.159,0.0126,2.188,12.93,145.0,10.558
-0.044,0.0094,2.188,12.918,145.0,10.506
-0.487,-0.0034,2.188,12.903,145.0,10.468
-0.003,-0.0229,2.188,12.889,145.0,10.436
-0.06,-0.0053,2.188,12.877,145.0,10.414
-0.018,-0.007,2.188,12.867,145.0,10.412
-0.09,-0.009,2.188,12.857,145.0,10.41
-0.116,-0.0053,2.188,12.847,145.0,10.412
-0.167,-0.0087,2.185,12.833,145.0,10.404
-0.134,-0.0107,2.188,12.819,145.0,10.404
-0.092,-0.011,2.188,12.809,145.0,10.404
-0.081,-0.0025,2.185,12.8,145.0,10.412
-0.194,-0.0053,2.185,12.79,145.0,10.414
-0.452,-0.012,2.185,12.78,145.0,10.416
-0.001,-0.0041,2.183,12.772,145.0,10.426
0.017,-0.0033,2.183,12.766,145.0,10.432
-0.029,-0.0082,2.183,12.757,145.0,10.436
-0.066,-0.0077,2.183,12.75,145.0,10.436
-0.068,-0.0114,2.18,12.744,145.0,10.444
-0.068,-0.0001,2.18,12.741,145.0,10.446
-0.076,-0.0026,2.178,12.741,145.0,10.448
-0.097,-0.0033,2.178,12.747,145.0,10.432
-0.061,-0.0038,2.176,12.755,145.0,10.418
-0.55,-0.005,2.175,12.765,145.0,10.416
0.007,0.0005,2.173,12.777,145.0,10.418
0.07,-0.0149,2.173,12.791,145.0,10.418
0.058,0.0076,2.173,12.807,145.0,10.422
-0.039,-0.0159,2.17,12.825,145.0,10.428
-0.048,-0.0021,2.17,12.843,145.0,10.436
-0.036,0.0016,2.168,12.861,145.0,10.448
-0.029,-0.0027,2.168,12.877,145.0,10.458
-0.023,-0.0007,2.168,12.893,145.0,10.47
-0.032,-0.0074,2.168,12.905,145.0,10.482
0.011,0.0032,2.166,12.918,145.0,10.506
-0.505,-0.0036,2.165,12.929,145.0,10.528
0.055,-0.0049,2.165,12.939,43.0,10.56
0.084,-0.002,2.165,12.948,43.0,10.59
0.059,-0.0005,2.165,12.955,43.0,10.62
0.01,-0.0117,2.165,12.96,43.0,10.656
-0.002,-0.0118,2.165,12.963,43.0,10.692
-0.008,0.0027,2.165,12.964,43.0,10.734
-0.024,-0.0074,2.165,12.963,43.0,10.772
0.016,-0.0179,2.165,12.962,43.0,10.814
-0.011,0.0076,2.166,12.96,43.0,10.842
-0.152,-0.0046,2.166,12.954,43.0,10.892
-0.225,-0.0033,2.165,12.948,43.0,10.976
0.078,0.0128,2.165,12.94,43.0,11.058
0.089,0.014,2.165,12.931,43.0,11.14
0.054,-0.002,2.165,12.921,43.0,11.212
0.073,-0.0145,2.164,12.911,43.0,11.286
0.173,-0.0148,2.163,12.904,43.0,11.35
0.129,-0.0156,2.164,12.894,43.0,11.42
0.041,-0.0106,2.164,12.877,43.0,11.49
0.096,-0.0107,2.163,12.867,43.0,11.55
-0.303,-0.0039,2.163,12.857,43.0,11.588
0.164,0.003,2.163,12.847,50.0,11.616
0.202,-0.0064,2.163,12.837,50.0,11.642
0.212,-0.0126,2.161,12.829,50.0,11.666
0.113,-0.0142,2.16,12.819,50.0,11.686
0.081,-0.0092,2.159,12.809,50.0,11.71
0.105,-0.0059,2.158,12.801,50.0,11.74
0.092,-0.0105,2.158,12.792,50.0,11.772
0.094,-0.0091,2.158,12.782,50.0,11.788
0.066,0.0011,2.158,12.775,50.0,11.794
0.097,-0.0172,2.156,12.766,50.0,11.782
-0.366,-0.0087,2.155,12.757,50.0,11.75
0.132,-0.0028,2.154,12.75,50.0,11.722
0.159,-0.0024,2.153,12.742,50.0,11.704
0.161,0.0025,2.153,12.735,50.0,11.69
0.119,-0.0064,2.153,12.729,50.0,11.674
0.129,-0.0051,2.153,12.721,50.0,11.66
0.139,-0.0016,2.151,12.715,50.0,11.65
0.117,-0.0052,2.149,12.712,50.0,11.652
0.105,-0.0061,2.149,12.707,50.0,11.656
0.107,-0.001,2.148,12.704,50.0,11.654
0.12,0.0013,2.148,12.701,50.0,11.628
-0.196,-0.0094,2.146,12.698,50.0,11.588
0.251,-0.002,2.145,12.698,50.0,11.54
0.412,0.0029,2.144,12.697,50.0,11.486
0.164,0.0047,2.144,12.696,50.0,11.44
0.139,-0.0098,2.143,12.696,50.0,11.394
0.117,-0.0155,2.143,12.693,50.0,11.334
0.089,-0.0089,2.14,12.691,50.0,11.258
0.107,-0.0084,2.14,12.689,50.0,11.192
0.099,-0.0006,2.139,12.686,50.0,11.156
-0.332,-0.0017,2.138,12.683,50.0,11.148
0.164,-0.0054,2.138,12.678,50.0,11.152
0.293,-0.0036,2.138,12.677,50.0,11.164
0.23,-0.0004,2.135,12.672,50.0,11.188
0.08,-0.0095,2.134,12.669,50.0,11.206
0.112,-0.0116,2.133,12.666,50.0,11.224
0.104,0.0005,2.133,12.661,50.0,11.224
0.109,-0.0058,2.133,12.655,50.0,11.224
0.106,0.0022,2.133,12.649,50.0,11.232
0.086,-0.0038,2.133,12.644,50.0,11.25
-0.388,-0.0152,2.133,12.639,50.0,11.268
0.091,-0.005,2.13,12.637,90.0,11.28
0.196,0.0021,2.13,12.634,90.0,11.288
0.082,0.0014,2.129,12.632,90.0,11.286
0.006,-0.0087,2.128,12.627,90.0,11.288
0.055,-0.0096,2.128,12.617,90.0,11.288
-0.006,-0.0094,2.128,12.614,90.0,11.292
-0.001,-0.0165,2.127,12.61,91.0,11.298
-0.034,-0.0004,2.126,12.606,91.0,11.306
-0.488,-0.0076,2.126,12.602,91.0,11.306
-0.011,-0.0047,2.123,12.599,91.0,11.302
0.046,-0.0026,2.123,12.595,91.0,11.298
0.07,0.002,2.123,12.591,91.0,11.284
-0.003,-0.0055,2.122,12.585,91.0,11.276
-0.003,0.0001,2.121,12.582,120.0,11.268
-0.005,-0.009,2.121,12.582,120.0,11.242
-0.023,-0.002,2.119,12.587,120.0,11.192
-0.028,-0.0013,2.119,12.597,120.0,11.156
-0.08,0.0018,2.118,12.616,120.0,11.136
-0.401,-0.0063,2.118,12.643,120.0,11.142
0.052,-0.0068,2.118,12.681,120.0,11.154
0.085,-0.0069,2.117,12.727,120.0,11.164
0.042,-0.0078,2.116,12.785,120.0,11.18
0.008,-0.006,2.114,12.846,90.0,11.202
0.005,-0.0062,2.113,12.911,90.0,11.224
-0.002,-0.0019,2.113,12.979,90.0,11.242
-0.017,-0.0124,2.113,13.047,90.0,11.244
-0.024,-0.0036,2.113,13.114,90.0,11.234
0.011,-0.0047,2.113,13.179,90.0,11.214
-0.482,0.0014,2.113,13.237,90.0,11.176
0.035,-0.0116,2.113,13.293,90.0,11.13
0.051,-0.0028,2.113,13.344,90.0,11.074
0.041,-0.0001,2.113,13.39,90.0,10.702
-0.015,-0.0097,2.113,13.434,90.0,10.654
-0.008,-0.0074,2.113,13.468,90.0,10.604
0.0,-0.0121,2.113,13.497,90.0,10.57
-0.016,-0.0043,2.116,13.518,90.0,10.546
-0.015,-0.0024,2.117,13.537,90.0,10.522
0.0,-0.0043,2.118,13.548,90.0,10.502
-0.421,-0.0061,2.119,13.557,90.0,10.494
0.111,0.0,2.121,13.564,90.0,10.516
0.201,-0.0037,2.123,13.567,90.0,10.562
0.05,-0.0058,2.124,13.568,90.0,10.622
-0.049,-0.0093,2.127,13.563,75.0,10.672
-0.038,-0.0075,2.128,13.553,75.0,10.72
-0.005,-0.0023,2.13,13.542,75.0,10.748
-0.02,-0.01,2.13,13.524,75.0,10.778
-0.077,-0.0017,2.133,13.508,75.0,10.792
-0.538,0.0026,2.134,13.492,75.0,10.802
-0.068,-0.0133,2.135,13.48,75.0,10.8
-0.048,0.0053,2.136,13.466,75.0,10.786
-0.07,0.0016,2.138,13.446,75.0,10.782
-0.108,-0.0066,2.14,13.426,75.0,10.786
-0.017,-0.0084,2.14,13.404,75.0,10.798
-0.041,-0.0093,2.143,13.381,75.0,10.802
-0.071,-0.0021,2.143,13.355,75.0,10.808
-0.095,-0.0043,2.143,13.331,75.0,10.802
-0.082,-0.0034,2.145,13.302,75.0,10.798
-0.471,-0.0041,2.145,13.273,75.0,10.794
-0.053,-0.0031,2.145,13.252,75.0,10.794
-0.032,-0.0039,2.148,13.225,75.0,10.79
-0.064,-0.0079,2.148,13.2,75.0,10.79
-0.073,-0.0146,2.148,13.176,75.0,10.79
-0.048,-0.0068,0.0,13.154,75.0,10.79
-0.096,-0.0039,2.148,13.133,75.0,10.79
-0.079,-0.0102,2.148,13.111,75.0,10.788
-0.054,0.0049,2.148,13.091,75.0,10.798
-0.345,0.0036,2.148,13.073,75.0,10.8
-0.126,-0.0102,2.145,13.057,75.0,10.808
0.108,-0.0094,2.146,13.04,75.0,10.8
-0.03,-0.0048,2.145,13.02,75.0,10.782
-0.255,-0.0058,2.145,13.005,75.0,10.776
-0.176,-0.0155,2.145,12.989,75.0,10.776
-0.098,-0.0079,2.144,12.976,75.0,10.772
-0.101,-0.0059,2.143,12.963,75.0,10.77
-0.079,-0.0006,2.143,12.95,75.0,10.768
-0.563,-0.0012,2.143,12.939,75.0,10.766
0.003,0.002,2.143,12.929,75.0,10.766
0.021,0.0055,2.141,12.919,75.0,10.766
0.028,0.0021,2.14,12.91,75.0,10.768
-0.053,-0.0155,2.138,12.898,75.0,10.768
-0.111,-0.0088,2.138,12.894,75.0,10.768
-0.114,-0.009,2.135,12.892,75.0,10.766
-0.117,-0.004,2.135,12.891,75.0,10.766
-0.559,0.0015,2.133,12.896,75.0,10.768
-0.079,0.0016,2.133,12.91,75.0,10.77
-0.043,-0.0014,2.133,12.93,75.0,10.768
-0.027,0.0048,2.131,12.964,99.0,10.77
-0.098,-0.0138,2.13,13.01,99.0,10.778
-0.098,-0.0153,2.128,13.07,99.0,10.786
-0.099,-0.0004,2.128,13.14,99.0,10.776
-0.1,-0.0024,2.126,13.221,99.0,10.76
-0.118,-0.0032,2.126,13.313,99.0,10.758
-0.107,0.002,2.124,13.411,99.0,10.756
-0.505,-0.0029,2.124,13.515,99.0,10.756
-0.015,-0.0029,2.123,13.62,99.0,10.754
0.0,0.0044,2.124,13.726,99.0,10.766
-0.033,-0.0023,2.123,13.827,99.0,10.792
-0.045,-0.0167,2.123,13.922,99.0,10.82
-0.047,-0.0124,2.123,14.011,99.0,10.844
-0.044,-0.0084,2.126,14.085,99.0,10.858
-0.062,-0.0082,2.126,14.153,99.0,10.878
-0.028,-0.0062,2.127,14.214,99.0,10.89
-0.451,-0.0004,2.129,14.269,99.0,10.9
0.009,-0.0087,2.131,14.317,99.0,10.912
0.017,0.0027,2.134,14.36,99.0,10.99
-0.002,0.0001,2.136,14.393,99.0,11.13
-0.029,-0.0158,2.141,14.422,99.0,11.236
-0.027,-0.0081,2.144,14.443,99.0,11.334
-0.032,-0.0042,2.149,14.453,99.0,11.43
-0.036,-0.0019,2.154,14.46,99.0,11.524
-0.032,-0.0102,2.159,14.467,99.0,11.606
-0.334,0.0038,2.164,14.468,99.0,11.688
-0.087,-0.0043,2.169,14.466,99.0,11.76
0.051,0.002,2.179,14.454,99.0,11.838
0.051,0.002,2.179,14.454,99.0,11.904
-0.009,-0.0064,2.189,14.447,99.0,11.972
-0.013,-0.0113,2.194,14.443,99.0,12.036
-0.019,-0.0032,2.199,14.441,99.0,12.098
-0.02,0.0001,2.203,14.437,99.0,12.16
-0.027,-0.0048,2.206,14.432,99.0,12.224
-0.162,0.0016,2.211,14.431,99.0,12.282
-0.228,-0.006,2.216,14.425,99.0,12.342
0.043,-0.0029,2.218,14.413,91.0,12.404
0.045,-0.0004,2.225,14.391,91.0,12.458
0.0,-0.0168,2.228,14.374,91.0,12.508
-0.003,-0.0054,2.232,14.354,91.0,12.558
-0.01,-0.0006,2.236,14.331,91.0,12.612
-0.017,-0.0016,2.237,14.309,91.0,12.65
-0.026,-0.0007,2.241,14.288,91.0,12.69
-0.034,-0.001,2.245,14.264,91.0,12.716
-0.339,-0.0027,2.247,14.24,91.0,12.738
-0.017,-0.0116,2.251,14.216,85.0,12.744
0.03,-0.0035,2.253,14.195,85.0,12.74
0.023,0.002,2.257,14.175,85.0,12.722
-0.024,-0.0116,2.26,14.155,85.0,12.684
0.006,-0.0104,2.262,14.135,85.0,12.626
0.005,-0.0059,2.265,14.116,85.0,12.556
0.004,-0.0023,2.266,14.102,85.0,12.484
0.019,-0.0074,2.268,14.094,85.0,12.394
0.021,-0.0041,2.271,14.09,85.0,12.304
0.075,-0.0032,2.272,14.09,85.0,12.212
-0.311,0.0012,2.272,14.095,85.0,12.13
0.115,0.0004,2.275,14.109,89.0,12.048
0.135,-0.0019,2.277,14.131,89.0,11.958
0.102,0.0002,2.278,14.165,89.0,11.864
0.079,-0.0169,2.281,14.203,89.0,11.782
0.082,-0.0149,2.282,14.246,89.0,11.706
0.068,-0.0043,2.283,14.294,89.0,11.632
0.068,-0.0056,2.285,14.341,89.0,11.564
0.069,-0.0038,2.288,14.388,89.0,11.5
0.048,-0.0024,2.29,14.432,89.0,11.438
-0.023,0.0034,2.292,14.471,89.0,11.28
-0.268,-0.0081,2.296,14.505,89.0,11.224
0.122,0.0035,2.301,14.534,85.0,11.174
0.135,0.0039,2.305,14.556,85.0,11.136
0.084,-0.004,2.31,14.577,85.0,11.098
0.077,-0.0178,2.315,14.596,85.0,11.064
0.067,-0.0097,2.323,14.615,85.0,11.024
0.068,-0.0097,2.33,14.636,85.0,10.982
0.059,-0.0022,2.336,14.659,85.0,10.936
0.055,-0.0003,2.344,14.689,85.0,10.908
0.046,-0.004,2.351,14.723,85.0,10.954
-0.234,0.0034,2.359,14.764,85.0,10.966
-0.028,-0.0038,2.366,14.808,86.0,10.932
0.115,-0.0069,2.373,14.859,86.0,10.878
0.113,0.0029,2.38,14.915,86.0,10.836
0.055,-0.0077,2.388,14.975,86.0,10.822
0.061,-0.0196,2.392,15.036,86.0,10.768
0.061,-0.0107,2.406,15.165,86.0,10.748
0.059,-0.0048,2.413,15.23,86.0,10.732
0.063,-0.0021,2.421,15.295,86.0,10.71
0.049,-0.0006,2.428,15.359,86.0,10.692
0.075,0.0047,2.436,15.42,86.0,10.69
-0.352,-0.0054,2.443,15.473,86.0,10.692
0.106,-0.0065,2.453,15.524,80.0,10.698
0.112,0.0029,2.462,15.571,80.0,10.704
0.082,0.0034,2.471,15.613,80.0,10.716
0.047,-0.0178,2.481,15.645,80.0,10.736
0.058,-0.0122,2.492,15.672,80.0,10.744
0.052,-0.0097,2.504,15.688,80.0,10.742
0.044,-0.0109,2.517,15.697,80.0,10.724
0.038,-0.0024,2.532,15.701,80.0,10.706
0.035,-0.0004,2.547,15.697,80.0,10.692
0.024,0.0,2.562,15.691,80.0,10.676
-0.284,0.0026,2.576,15.68,80.0,10.66
0.008,-0.0139,2.593,15.665,80.0,10.664
0.088,-0.0017,2.609,15.646,80.0,10.648
0.093,0.0021,2.625,15.623,80.0,10.612
0.039,-0.0058,2.644,15.596,80.0,10.594
0.062,-0.0164,2.66,15.565,80.0,10.582
0.053,-0.0101,2.677,15.529,80.0,10.58
0.047,-0.0079,2.706,15.452,80.0,10.576
0.04,-0.0078,2.717,15.411,80.0,10.576
0.031,-0.003,2.724,15.368,80.0,10.572
0.019,0.0034,2.732,15.324,80.0,10.568
-0.222,-0.0102,2.741,15.278,80.0,10.57
0.114,-0.0038,2.748,15.232,82.0,10.576
0.123,0.0006,2.754,15.185,82.0,10.582
0.063,-0.0023,2.76,15.139,82.0,10.58
0.099,-0.0134,2.763,15.093,82.0,10.56
0.113,-0.0079,2.77,15.004,82.0,10.55
0.109,-0.0037,2.774,14.96,82.0,10.594
0.106,-0.0043,2.774,14.92,82.0,10.758
0.103,-0.0052,2.774,14.881,82.0,11.098
0.144,0.0025,2.774,14.841,82.0,11.494
-0.291,-0.0047,2.77,14.804,82.0,11.822
0.173,-0.0013,2.768,14.767,83.0,12.016
0.188,0.0044,2.761,14.733,83.0,12.094
0.159,0.0038,2.758,14.699,83.0,12.11
0.125,-0.0173,2.753,14.669,83.0,12.114
0.127,-0.0117,2.747,14.639,83.0,12.106
0.12,-0.0048,2.741,14.609,83.0,12.096
0.111,-0.0038,2.734,14.581,83.0,12.084
0.108,-0.0049,2.728,14.554,83.0,12.018
0.101,-0.0125,2.721,14.529,83.0,11.948
0.082,-0.0076,2.713,14.504,83.0,11.876
-0.255,0.0026,2.706,14.482,83.0,11.798
0.063,-0.0099,2.698,14.461,80.0,11.726
0.14,-0.0005,2.691,14.439,80.0,11.652
0.143,0.003,2.683,14.421,80.0,11.608
0.081,-0.0026,2.676,14.404,80.0,11.576
0.089,-0.0139,2.668,14.389,80.0,11.554
0.091,-0.0097,2.661,14.376,80.0,11.542
0.087,-0.0093,2.654,14.363,80.0,11.542
0.076,-0.0062,2.646,14.351,80.0,11.556
0.073,-0.004,2.639,14.341,80.0,11.622
0.066,-0.0118,2.631,14.333,80.0,11.634
0.074,-0.0059,2.624,14.327,80.0,11.634
-0.318,-0.0014,2.617,14.32,80.0,11.63
0.113,-0.0055,2.611,14.315,80.0,11.622
0.12,0.0012,2.605,14.311,80.0,11.618
0.103,0.0054,2.599,14.308,80.0,11.612
0.061,-0.0184,2.592,14.301,80.0,11.618
0.076,-0.01,2.586,14.298,80.0,11.63
0.058,-0.0006,2.576,14.284,80.0,11.644
0.058,-0.0006,2.576,14.284,80.0,11.65
0.058,0.0009,2.568,14.272,80.0,11.654
0.053,-0.0083,2.564,14.273,80.0,11.65
0.081,-0.0074,2.559,14.277,80.0,11.638
-0.342,-0.007,2.557,14.273,80.0,11.628
0.112,-0.0048,2.553,14.264,79.0,11.618
0.122,0.0025,2.549,14.258,79.0,11.622
0.092,-0.0014,2.546,14.258,79.0,11.622
0.073,-0.0165,2.542,14.264,79.0,11.626
0.08,-0.0076,2.539,14.268,79.0,11.622
0.071,-0.0085,2.536,14.269,79.0,11.618
0.069,-0.002,2.533,14.269,79.0,11.612
0.073,-0.011,2.531,14.267,79.0,11.604
0.072,-0.0066,2.528,14.263,79.0,11.594
0.066,-0.003,2.526,14.258,79.0,11.586
-0.193,0.0065,2.523,14.251,79.0,11.582
-0.017,-0.012,2.521,14.243,80.0,11.576
0.123,-0.0078,2.517,14.236,80.0,11.566
0.127,0.0015,2.516,14.228,80.0,11.55
0.062,-0.0036,2.513,14.22,80.0,11.54
0.062,-0.0152,2.511,14.213,80.0,11.53
0.056,-0.0063,2.509,14.204,80.0,11.542
0.051,-0.0028,2.503,14.187,80.0,11.562
0.049,-0.0033,2.501,14.178,80.0,11.572
0.041,-0.0007,2.501,14.169,80.0,11.568
0.037,-0.0054,2.498,14.159,80.0,11.542
-0.318,-0.0056,2.496,14.152,80.0,11.506
0.074,-0.0116,2.492,14.142,80.0,11.456
0.096,0.0022,2.487,14.125,80.0,11.386
0.096,0.0022,2.487,14.125,80.0,11.288
0.044,-0.0113,2.482,14.11,80.0,11.156
0.069,-0.0024,2.48,14.102,106.0,11.048
0.056,0.0011,2.477,14.092,106.0,10.97
0.047,0.0018,2.475,14.085,106.0,10.922
0.054,0.0026,2.471,14.076,106.0,10.882
0.051,0.0027,2.47,14.067,106.0,10.804
0.065,0.0038,2.467,14.059,106.0,10.698
-0.326,-0.0071,2.465,14.05,106.0,10.6
0.117,-0.0061,2.461,14.042,106.0,10.526
0.121,-0.0008,2.46,14.034,106.0,10.48
0.069,-0.001,2.457,14.027,106.0,10.454
0.057,-0.0147,2.455,14.019,80.0,10.416
0.055,-0.0094,2.451,14.012,80.0,10.372
0.041,-0.0052,2.451,14.003,80.0,10.33
0.037,-0.0081,2.447,13.995,80.0,10.328
0.039,-0.007,2.445,13.987,80.0,10.34
0.043,-0.0071,2.442,13.979,80.0,10.372
0.04,-0.0077,2.44,13.972,80.0,10.426
-0.306,-0.0006,2.437,13.964,80.0,10.482
0.067,-0.0049,2.435,13.957,80.0,10.538
0.09,-0.0022,2.432,13.95,80.0,10.592
0.073,0.002,2.427,13.937,80.0,10.648
0.061,-0.0154,2.425,13.931,80.0,10.7
0.057,-0.0052,2.421,13.925,80.0,10.744
0.058,-0.0112,2.42,13.918,80.0,10.772
0.057,-0.0083,2.417,13.911,80.0,10.794
0.061,-0.0017,2.415,13.905,80.0,10.81
0.059,-0.0003,2.412,13.897,80.0,10.814
-0.276,-0.0009,2.41,13.891,80.0,10.808
0.074,-0.0123,2.405,13.877,80.0,10.808
0.121,0.0046,2.401,13.871,80.0,10.814
0.067,-0.0058,2.4,13.865,80.0,10.83
0.116,-0.0147,2.397,13.86,83.0,10.83
0.114,-0.0102,2.396,13.853,83.0,10.816
0.111,-0.0078,2.392,13.846,83.0,10.804
0.114,-0.002,2.389,13.835,83.0,10.786
0.114,-0.002,2.389,13.835,83.0,10.778
0.098,-0.0054,2.385,13.823,83.0,10.768
-0.21,-0.012,2.383,13.818,83.0,10.76
0.168,-0.0009,2.382,13.811,81.0,10.754
0.18,0.0049,2.378,13.805,81.0,10.75
0.122,-0.002,2.378,13.804,81.0,10.748
0.1,-0.0172,2.375,13.8,81.0,10.754
0.098,-0.0134,2.373,13.798,81.0,10.76
0.087,-0.0061,2.372,13.797,81.0,10.77
0.079,-0.0085,2.369,13.798,81.0,10.786
0.076,-0.0001,2.368,13.808,81.0,10.792
0.067,-0.0009,2.365,13.828,81.0,10.8
0.056,-0.0049,2.362,13.857,81.0,10.8
-0.291,0.002,2.362,13.901,81.0,10.788
0.028,-0.0066,2.359,13.96,81.0,10.77
0.119,-0.0018,2.357,14.033,81.0,10.76
0.129,0.0015,2.357,14.117,81.0,10.756
0.056,-0.0074,2.355,14.209,81.0,10.75
0.052,-0.0146,2.352,14.309,80.0,10.748
0.051,-0.0072,2.352,14.406,80.0,10.746
0.049,-0.0028,2.35,14.499,80.0,10.756
0.044,-0.0019,2.349,14.586,80.0,10.756
0.035,-0.0014,2.348,14.667,80.0,10.758
0.035,-0.0016,2.348,14.741,80.0,10.764
0.023,-0.009,2.349,14.802,80.0,10.764
0.055,-0.0015,2.349,14.855,80.0,10.76
-0.388,-0.0044,2.35,14.901,80.0,10.766
0.083,-0.0059,2.352,14.936,80.0,10.77
0.093,-0.0025,2.359,15.005,80.0,10.78
0.032,-0.0129,2.362,15.013,96.0,10.788
0.029,-0.0088,2.364,15.015,96.0,10.782
0.023,-0.0042,2.368,15.012,96.0,10.772
0.035,-0.003,2.37,15.006,96.0,10.75
0.041,-0.0009,2.374,14.995,96.0,10.736
0.04,-0.0056,2.378,14.981,96.0,10.736
0.025,-0.0064,2.388,14.915,96.0,10.748
0.099,-0.0026,2.39,14.885,96.0,10.764
0.103,0.0046,2.394,14.855,96.0,10.772
0.041,0.0,2.396,14.823,96.0,10.772
0.028,-0.0168,2.4,14.79,72.0,10.768
0.023,-0.0154,2.401,14.755,72.0,10.76
0.019,-0.0107,2.405,14.718,72.0,10.754
0.012,-0.0122,2.407,14.679,72.0,10.748
0.009,-0.0097,2.411,14.605,72.0,10.742
0.0,0.0004,2.414,14.566,72.0,10.742
-0.001,-0.0094,2.415,14.531,72.0,10.738
-0.342,0.0024,2.416,14.496,72.0,10.738
0.028,-0.0081,2.416,14.463,72.0,10.746
0.054,-0.014,2.419,14.43,72.0,10.754
0.05,0.0031,2.419,14.4,72.0,10.764
-0.01,-0.0059,2.419,14.37,72.0,10.772
0.023,-0.0147,2.419,14.341,72.0,10.778
0.02,-0.0005,2.419,14.313,72.0,10.78
0.004,-0.0018,2.419,14.285,72.0,10.776
-0.007,-0.0095,2.419,14.259,72.0,10.76
-0.009,-0.0077,2.417,14.234,72.0,10.748
-0.026,-0.0107,2.416,14.21,72.0,10.736
0.014,0.0002,2.416,14.187,72.0,10.734
-0.391,-0.0037,2.415,14.165,72.0,10.734
0.051,-0.0045,2.414,14.145,72.0,10.742
0.067,0.001,2.411,14.125,72.0,10.748
0.02,0.0026,2.41,14.105,72.0,10.754
0.032,-0.0172,2.409,14.088,80.0,10.764
0.047,-0.0015,2.406,14.071,80.0,10.772
0.049,-0.0047,2.405,14.054,80.0,10.782
0.046,-0.0108,2.401,14.039,80.0,10.782
0.049,-0.0021,2.4,14.025,80.0,10.78
0.051,0.0015,2.397,14.012,80.0,10.772
0.042,-0.0026,2.396,13.995,80.0,10.768
-0.321,0.0028,2.392,13.981,80.0,10.758
0.039,-0.0026,2.391,13.967,80.0,10.758
0.13,0.003,2.39,13.952,80.0,10.76
0.145,-0.0001,2.387,13.94,80.0,10.772
0.071,-0.0113,2.385,13.928,80.0,10.782
0.069,-0.0171,2.383,13.918,80.0,10.788
0.065,-0.0073,2.38,13.908,80.0,10.78
0.057,-0.0033,2.378,13.896,80.0,10.768
0.043,-0.0048,2.377,13.885,80.0,10.764
0.039,-0.0024,2.374,13.873,80.0,10.764
0.031,-0.0071,2.369,13.853,80.0,10.764
-0.38,0.0003,2.367,13.843,80.0,10.764
0.101,-0.0032,2.365,13.834,80.0,10.764
0.112,-0.0048,2.363,13.824,80.0,10.758
0.103,-0.0009,2.362,13.816,80.0,10.758
0.034,-0.0129,2.359,13.806,80.0,10.764
0.046,-0.0159,2.357,13.801,63.0,10.764
0.04,-0.0001,2.354,13.798,63.0,10.776
0.025,-0.0051,2.352,13.783,63.0,10.786
0.02,-0.0059,2.348,13.775,63.0,10.794
0.011,-0.0007,2.347,13.767,63.0,10.802
0.041,-0.0011,2.345,13.759,63.0,10.798
-0.388,-0.0021,2.344,13.752,63.0,10.788
0.084,-0.0025,2.343,13.744,63.0,10.778
0.093,-0.0014,2.34,13.737,63.0,10.776
0.063,0.0007,2.338,13.729,63.0,10.776
0.03,-0.0169,2.337,13.723,63.0,10.776
0.04,-0.0122,2.335,13.716,63.0,10.76
0.035,-0.007,2.333,13.709,63.0,10.76
0.034,-0.0002,2.332,13.703,63.0,10.772
0.031,0.0025,2.33,13.697,63.0,10.786
0.031,-0.0032,2.328,13.689,63.0,10.786
0.017,-0.001,2.327,13.682,63.0,10.79
-0.168,0.0015,2.324,13.676,63.0,10.79
-0.122,-0.009,2.322,13.67,63.0,10.792
0.09,-0.0029,2.322,13.662,63.0,10.788
0.107,-0.001,2.32,13.656,63.0,10.782
0.051,-0.0027,2.318,13.649,63.0,10.772
0.057,-0.0174,2.317,13.644,80.0,10.77
0.056,-0.0103,2.315,13.639,80.0,10.772
0.048,-0.0048,2.314,13.631,80.0,10.782
0.036,-0.0023,2.312,13.626,80.0,10.79
0.033,0.0008,2.312,13.619,80.0,10.8
0.034,-0.0018,2.309,13.612,80.0,10.802
0.035,-0.0013,2.308,13.606,80.0,10.804
-0.338,0.0005,2.305,13.6,80.0,10.8
0.069,-0.0058,2.303,13.597,80.0,10.794
0.097,-0.0077,2.303,13.592,80.0,10.78
0.099,-0.0017,2.301,13.586,80.0,10.772
0.038,-0.0151,2.3,13.583,79.0,10.768
0.039,-0.0017,2.298,13.582,79.0,10.772
0.029,-0.0023,2.297,13.581,79.0,10.77
0.021,-0.001,2.295,13.581,79.0,10.776
0.01,-0.0081,2.293,13.581,79.0,10.78
0.001,-0.0039,2.292,13.581,79.0,10.782
0.003,-0.0002,2.292,13.579,79.0,10.782
-0.377,-0.0001,2.29,13.579,79.0,10.782
0.047,-0.0101,2.288,13.578,79.0,10.788
0.05,-0.0019,2.287,13.578,79.0,10.788
0.036,0.0036,2.286,13.578,79.0,10.786
0.0,-0.0146,2.285,13.576,79.0,10.78
0.021,-0.0152,2.285,13.576,79.0,10.78
0.017,-0.0061,2.282,13.573,79.0,10.786
0.012,-0.0046,2.282,13.571,79.0,10.792
0.006,0.0006,2.282,13.568,79.0,10.79
-0.01,-0.0049,2.28,13.564,79.0,10.79
0.004,-0.0033,2.278,13.561,79.0,10.792
-0.35,-0.0012,2.278,13.557,79.0,10.788
0.041,-0.0049,2.277,13.552,79.0,10.788
0.048,0.0022,2.275,13.547,79.0,10.794
0.003,0.0051,2.275,13.542,79.0,10.794
-0.016,-0.0159,2.272,13.538,84.0,10.788
0.02,-0.0179,2.272,13.534,84.0,10.776
0.014,-0.009,2.271,13.529,84.0,10.772
0.009,0.0024,2.27,13.523,84.0,10.768
0.013,-0.0055,2.267,13.511,84.0,10.766
-0.338,-0.0019,2.267,13.505,84.0,10.766
0.057,-0.0077,2.265,13.5,84.0,10.778
0.099,-0.0057,2.265,13.492,84.0,10.79
0.1,0.0044,2.262,13.487,84.0,10.792
0.038,-0.0039,2.262,13.482,84.0,10.79
0.079,-0.0074,2.26,13.474,84.0,10.788
0.079,-0.0074,2.26,13.474,84.0,10.792
0.065,-0.0037,2.257,13.472,84.0,10.794
0.063,-0.0029,2.257,13.475,84.0,10.794
0.072,-0.0035,2.257,13.482,84.0,10.788
-0.389,-0.002,2.255,13.495,84.0,10.788
0.12,-0.0028,2.253,13.511,90.0,10.782
0.129,-0.002,2.252,13.532,90.0,10.778
0.126,0.0007,2.252,13.56,90.0,10.77
0.052,-0.016,2.252,13.594,90.0,10.77
0.059,-0.0144,2.25,13.671,90.0,10.778
0.032,0.0016,2.247,13.712,90.0,10.788
0.028,-0.0025,2.247,13.755,90.0,10.792
0.016,-0.0072,2.247,13.794,90.0,10.788
0.015,-0.009,2.247,13.833,67.0,10.778
-0.424,-0.006,2.246,13.867,67.0,10.768
0.071,-0.0091,2.245,13.9,67.0,10.764
0.078,0.002,2.246,13.925,67.0,10.764
0.059,0.0071,2.247,13.948,67.0,10.77
0.003,-0.0076,2.247,13.967,67.0,10.77
0.011,-0.0116,2.247,13.982,84.0,10.772
0.003,-0.0083,2.247,13.993,84.0,10.776
-0.002,-0.0037,2.247,13.998,84.0,10.788
-0.016,-0.0089,2.248,14.002,84.0,10.804
-0.02,-0.0055,2.25,14.003,84.0,10.81
-0.035,-0.0011,2.251,14.002,84.0,10.808
-0.005,0.0041,2.252,13.999,84.0,10.798
-0.442,-0.0082,2.252,13.994,84.0,10.782
0.041,-0.003,2.252,13.985,84.0,10.776
0.054,0.0,2.253,13.977,84.0,10.754
0.015,0.0022,2.255,13.965,84.0,10.712
-0.011,-0.0179,2.255,13.939,106.0,10.648
-0.011,-0.0037,2.257,13.924,106.0,10.58
-0.018,-0.0051,2.257,13.906,106.0,10.538
-0.023,0.0002,2.257,13.89,106.0,10.512
-0.023,-0.0023,2.257,13.871,106.0,10.51
-0.039,-0.0066,2.257,13.852,106.0,10.526
-0.161,0.0056,2.257,13.834,106.0,10.548
-0.246,-0.0141,2.257,13.815,106.0,10.57
0.026,-0.0015,2.257,13.797,106.0,10.592
0.034,0.0053,2.257,13.779,106.0,10.606
-0.022,-0.0004,2.257,13.762,106.0,10.612
0.011,-0.0189,2.257,13.743,79.0,10.612
0.035,-0.0055,2.256,13.711,79.0,10.616
0.029,-0.0022,2.255,13.695,79.0,10.626
0.03,-0.0047,2.255,13.68,79.0,10.638
0.028,-0.0071,2.253,13.666,79.0,10.646
-0.281,0.0012,2.252,13.651,79.0,10.642
0.025,-0.0167,2.252,13.638,85.0,10.642
0.108,-0.0084,2.252,13.624,85.0,10.658
0.109,-0.0008,2.25,13.609,85.0,10.702
0.039,-0.007,2.25,13.596,85.0,10.758
0.081,-0.001,2.247,13.574,85.0,10.826
0.081,-0.001,2.247,13.574,85.0,10.908
0.069,0.0019,2.246,13.555,85.0,10.986
0.064,-0.0047,2.245,13.544,85.0,11.066
0.061,-0.0067,2.243,13.535,85.0,11.14
-0.355,-0.0009,2.242,13.525,85.0,11.22
0.132,-0.0062,2.242,13.517,87.0,11.306
0.151,0.0007,2.241,13.508,87.0,11.396
0.145,0.0036,2.24,13.498,87.0,11.478
0.064,-0.0071,2.238,13.491,87.0,11.552
0.06,-0.0119,2.237,13.476,87.0,11.61
0.019,-0.0054,2.236,13.468,87.0,11.664
0.003,-0.0043,2.235,13.461,87.0,11.698
-0.001,-0.0088,2.233,13.456,87.0,11.726
0.009,-0.0065,2.233,13.452,87.0,11.75
-0.437,-0.0027,2.232,13.451,87.0,11.766
0.066,-0.0089,2.232,13.45,87.0,11.774
0.081,0.0003,2.23,13.455,87.0,11.778
0.059,0.0079,2.23,13.461,87.0,11.77
-0.002,-0.0137,2.228,13.473,87.0,11.738
-0.005,-0.0142,2.227,13.491,116.0,11.69
-0.01,-0.0062,2.227,13.508,116.0,11.632
-0.009,-0.0045,2.225,13.531,116.0,11.576
-0.007,-0.0017,2.225,13.554,116.0,11.522
-0.011,-0.0049,2.223,13.579,116.0,11.468
-0.012,0.0016,2.222,13.602,116.0,11.406
-0.376,0.0021,2.222,13.625,116.0,11.346
0.017,-0.0092,2.222,13.644,116.0,11.288
0.043,-0.0072,2.221,13.676,116.0,11.23
-0.015,-0.0088,2.22,13.687,116.0,11.166
0.027,-0.0157,2.22,13.696,82.0,11.118
0.028,-0.0042,2.22,13.703,82.0,11.08
0.018,-0.0062,2.22,13.708,82.0,11.048
0.023,-0.0033,2.218,13.71,82.0,11.02
0.024,-0.005,2.218,13.712,82.0,10.98
0.033,-0.0058,2.218,13.71,82.0,10.938
-0.373,-0.0006,2.22,13.705,82.0,10.9
0.103,-0.0015,2.22,13.701,82.0,10.88
0.085,-0.0006,2.22,13.696,82.0,10.842
0.05,-0.0169,2.218,13.691,82.0,10.848
0.077,-0.0137,2.218,13.684,82.0,10.866
0.076,-0.0001,2.217,13.675,82.0,10.88
0.086,-0.0009,2.22,13.657,82.0,10.882
0.086,-0.0009,2.22,13.657,82.0,10.886
0.078,-0.0008,2.217,13.637,82.0,10.88
-0.358,-0.0066,2.217,13.627,82.0,10.874
0.146,-0.0063,2.217,13.617,82.0,10.876
0.162,-0.003,2.217,13.607,82.0,10.88
0.144,0.0031,2.217,13.595,82.0,10.886
0.09,-0.0156,2.217,13.588,82.0,10.886
0.093,-0.0116,2.216,13.578,82.0,10.892
0.091,-0.0067,2.215,13.57,82.0,10.89
0.078,-0.0031,2.215,13.567,82.0,10.892
0.073,-0.004,2.215,13.566,82.0,10.89
0.063,-0.0007,2.215,13.569,82.0,10.852
0.059,-0.001,2.214,13.575,82.0,10.846
-0.33,0.0019,2.214,13.587,82.0,10.844
0.03,-0.0047,2.213,13.6,80.0,10.842
0.114,-0.001,2.213,13.614,80.0,10.846
0.122,0.0019,2.213,13.63,80.0,10.842
0.056,-0.0028,2.213,13.644,80.0,10.838
0.045,-0.0168,2.213,13.657,80.0,10.842
0.034,-0.0115,2.213,13.669,80.0,10.842
0.029,-0.0089,2.213,13.676,80.0,10.838
0.02,-0.0104,2.213,13.681,80.0,10.832
0.013,-0.0035,2.213,13.687,80.0,10.83
-0.001,-0.0016,2.213,13.688,80.0,10.834
0.001,-0.0039,2.213,13.688,80.0,10.838
-0.427,0.0018,2.214,13.686,80.0,10.836
0.04,-0.006,2.215,13.684,80.0,10.83
0.056,0.0006,2.216,13.679,80.0,10.812
0.057,0.0035,2.217,13.674,80.0,10.804
-0.001,-0.0117,2.217,13.669,80.0,10.804
0.016,-0.0165,2.217,13.66,107.0,10.866
0.011,-0.01,2.22,13.652,107.0,10.958
-0.001,-0.0026,2.222,13.642,107.0,11.032
-0.005,-0.0006,2.222,13.632,107.0,11.08
-0.018,-0.0011,2.223,13.622,107.0,11.092
-0.037,0.0001,2.225,13.61,107.0,11.066
-0.041,0.0006,2.225,13.6,107.0,10.99
-0.418,0.0022,2.225,13.588,107.0,10.902
0.006,-0.0085,2.226,13.574,107.0,10.842
0.016,-0.0023,2.227,13.562,107.0,10.808
0.008,0.0041,2.227,13.534,107.0,10.808
-0.009,-0.0161,2.227,13.522,76.0,10.816
-0.01,-0.0085,2.227,13.509,76.0,10.826
-0.01,-0.0073,2.227,13.496,76.0,10.83
-0.005,-0.0052,2.227,13.482,76.0,10.824
-0.007,0.0004,2.228,13.47,76.0,10.824
-0.012,0.0013,2.228,13.457,76.0,10.82
-0.221,0.0038,2.228,13.446,76.0,10.816
-0.135,-0.0055,2.227,13.435,76.0,10.822
0.041,-0.0027,2.227,13.423,76.0,10.832
0.038,0.0013,2.227,13.414,76.0,10.838
-0.028,-0.0074,2.227,13.404,76.0,10.838
0.016,-0.0176,2.227,13.394,81.0,10.832
0.029,-0.0055,2.227,13.384,81.0,10.83
0.027,-0.0002,2.225,13.374,81.0,10.824
0.034,-0.0055,2.225,13.365,81.0,10.824
0.042,-0.007,2.225,13.356,81.0,10.824
0.046,-0.0091,2.223,13.346,81.0,10.824
-0.35,-0.0015,2.223,13.336,81.0,10.824
0.083,-0.0063,2.222,13.328,81.0,10.83
0.103,-0.0093,2.222,13.319,81.0,10.83
0.116,0.003,2.22,13.303,81.0,10.832
0.09,-0.0162,2.22,13.297,81.0,10.836
0.099,-0.0039,2.217,13.289,81.0,10.836
0.098,-0.0076,2.217,13.282,81.0,10.836
0.1,-0.0039,2.216,13.276,81.0,10.836
0.077,-0.0002,2.215,13.271,81.0,10.838
-0.378,-0.0032,2.213,13.261,81.0,10.838
-0.378,-0.0032,2.213,13.261,87.0,10.842
0.141,-0.0007,2.213,13.255,87.0,10.838
0.144,0.0007,2.211,13.252,87.0,10.844
0.073,-0.0125,2.21,13.252,87.0,10.848
0.083,-0.0149,2.21,13.252,87.0,10.854
0.078,-0.0071,2.208,13.252,87.0,10.834
0.072,-0.009,2.208,13.255,87.0,10.834
0.058,-0.0018,2.208,13.257,87.0,10.836
0.044,-0.0043,2.205,13.26,87.0,10.83
0.051,-0.0011,2.203,13.263,87.0,10.826
-0.387,-0.0038,2.203,13.267,87.0,10.826
0.094,-0.009,2.203,13.268,87.0,10.832
0.097,-0.0025,2.203,13.271,87.0,10.836
0.083,0.0015,2.203,13.277,87.0,10.834
0.04,-0.0131,2.201,13.277,87.0,10.826
0.037,-0.0059,2.2,13.277,87.0,10.826
0.03,-0.0039,2.199,13.276,87.0,10.834
0.025,-0.0019,2.199,13.272,87.0,10.836
0.018,0.0003,2.198,13.27,87.0,10.858
0.004,0.001,2.198,13.266,87.0,10.892
0.041,-0.0004,2.198,13.261,87.0,10.916
-0.416,-0.0075,2.196,13.256,87.0,10.922
0.056,-0.0037,2.195,13.251,87.0,10.91
0.062,0.0007,2.195,13.246,87.0,10.89
0.04,0.0043,2.195,13.241,87.0,10.874
0.011,-0.0164,2.193,13.234,87.0,10.86
0.029,-0.0141,2.193,13.229,77.0,10.848
0.024,-0.0089,2.193,13.221,77.0,10.832
0.015,0.0006,2.193,13.214,77.0,10.814
0.013,-0.0004,2.191,13.206,77.0,10.852
0.007,-0.0027,2.19,13.197,77.0,10.882
-0.007,-0.0094,2.19,13.19,77.0,10.916
-0.131,-0.0011,2.189,13.182,77.0,10.944
-0.225,-0.0122,2.189,13.175,77.0,10.974
0.053,-0.0023,2.188,13.159,77.0,11.01
0.008,-0.0035,2.188,13.153,77.0,11.052
0.02,-0.0158,2.186,13.145,77.0,11.098
0.028,-0.005,2.185,13.13,77.0,11.146
0.012,-0.0065,2.185,13.123,77.0,11.198
0.009,-0.0029,2.183,13.115,77.0,11.244
0.007,-0.008,2.183,13.109,77.0,11.296
0.019,-0.0036,2.183,13.094,77.0,11.41
0.058,-0.0002,2.181,13.087,77.0,11.432
0.071,0.0002,2.18,13.082,77.0,11.41
0.047,0.0031,2.178,13.069,77.0,11.432
0.055,-0.0154,2.178,13.065,169.0,11.48
0.035,-0.0065,2.178,13.057,169.0,11.506
0.028,-0.0034,2.175,13.05,169.0,11.538
0.031,-0.0059,2.175,13.045,169.0,11.564
0.02,0.0011,2.174,13.037,169.0,11.588
0.061,0.0,2.173,13.032,169.0,11.604
-0.371,-0.0047,2.174,13.027,169.0,11.616
0.1,0.0012,2.173,13.021,169.0,11.626
0.105,0.0001,2.173,13.015,169.0,11.632
0.062,-0.0024,2.171,13.01,169.0,11.628
0.076,-0.0165,2.17,13.005,169.0,11.62
0.095,-0.007,2.169,12.998,169.0,11.604
0.093,-0.0047,2.169,12.993,169.0,11.542
0.089,-0.0068,2.168,12.986,169.0,11.524
0.091,-0.0072,2.168,12.98,169.0,11.542
0.072,-0.0074,2.168,12.975,169.0,11.524
-0.112,0.0078,2.166,12.97,169.0,11.488
-0.13,-0.0076,2.163,12.958,169.0,11.474
0.173,0.0009,2.163,12.954,169.0,11.456
0.122,-0.0071,2.163,12.95,169.0,11.44
0.099,-0.0169,2.163,12.943,169.0,11.418
0.102,-0.0081,2.163,12.938,169.0,11.402
0.094,-0.0006,2.163,12.933,169.0,11.396
0.078,-0.004,2.16,12.923,169.0,11.388
0.078,-0.004,2.16,12.923,169.0,11.384
0.061,-0.0062,2.158,12.913,169.0,11.376
-0.373,-0.0045,2.158,12.908,169.0,11.372
0.127,-0.0046,2.158,12.903,169.0,11.364
0.134,0.0016,2.158,12.898,169.0,11.358
0.087,0.0,2.156,12.893,169.0,11.354
0.057,-0.0171,2.155,12.89,169.0,11.346
0.06,-0.0095,2.155,12.884,169.0,11.34
0.05,-0.0024,2.155,12.879,169.0,11.33
0.034,-0.0064,2.153,12.868,169.0,11.322
0.019,-0.0107,2.153,12.863,169.0,11.314
0.012,0.0009,2.153,12.858,169.0,11.306
-0.39,0.0,2.153,12.853,169.0,11.292
0.044,-0.012,2.151,12.851,169.0,11.286
0.076,-0.0024,2.151,12.845,169.0,11.274
0.085,0.0027,2.15,12.841,169.0,11.266
0.018,-0.0043,2.15,12.836,169.0,11.25
0.019,-0.0117,2.148,12.826,80.0,11.224
0.012,-0.0031,2.148,12.821,80.0,11.206
0.009,-0.0041,2.148,12.816,80.0,11.192
0.015,-0.0047,2.148,12.811,80.0,11.18
0.015,-0.0022,2.145,12.807,80.0,11.168
0.023,-0.0049,2.145,12.804,80.0,11.162
-0.334,0.0,2.145,12.799,80.0,11.152
0.066,-0.0086,2.145,12.794,80.0,11.146
0.094,-0.0066,2.143,12.791,80.0,11.136
0.091,-0.0001,2.143,12.786,80.0,11.132
0.029,-0.0049,2.143,12.783,80.0,11.124
0.06,-0.0151,2.143,12.779,104.0,11.118
0.05,-0.0132,2.14,12.773,104.0,11.11
0.032,-0.0096,2.14,12.769,104.0,11.104
0.02,-0.0076,2.139,12.764,104.0,11.1
0.012,0.0019,2.138,12.759,104.0,11.096
0.004,-0.0036,2.138,12.754,104.0,11.09
-0.292,-0.0026,2.138,12.751,104.0,11.07
-0.056,-0.0064,2.138,12.746,104.0,11.068
0.073,0.0005,2.136,12.741,104.0,11.066
0.078,-0.0033,2.135,12.736,104.0,11.046
0.01,-0.0073,2.135,12.731,104.0,11.03
0.059,-0.0126,2.135,12.729,83.0,11.014
0.064,-0.0044,2.133,12.724,83.0,11.01
0.062,-0.0057,2.133,12.719,83.0,11.004
0.057,-0.0085,2.133,12.714,83.0,10.998
0.064,-0.0077,2.133,12.709,83.0,10.992
0.057,-0.0031,2.133,12.704,83.0,10.992
-0.27,-0.0002,2.131,12.702,83.0,10.988
0.018,-0.0071,2.13,12.697,84.0,10.986
0.116,-0.0016,2.13,12.692,84.0,10.98
0.138,0.0063,2.13,12.687,84.0,10.98
0.073,-0.0055,2.128,12.684,84.0,10.978
0.068,-0.0178,2.128,12.679,84.0,10.976
0.064,-0.0014,2.128,12.677,84.0,10.97
0.065,-0.0082,2.126,12.669,84.0,10.966
0.063,-0.013,2.126,12.666,84.0,10.96
0.067,0.0,2.126,12.662,84.0,10.96
0.046,0.0003,2.123,12.657,84.0,10.966
0.064,-0.0005,2.123,12.653,84.0,10.97
-0.419,-0.0003,2.123,12.649,84.0,10.974
0.098,-0.0068,2.123,12.644,80.0,10.964
0.112,-0.0018,2.123,12.642,80.0,10.944
0.102,-0.0014,2.123,12.637,80.0,10.932
0.036,-0.0175,2.123,12.636,80.0,10.922
0.042,-0.0138,2.121,12.627,80.0,10.912
0.024,-0.0018,2.119,12.622,80.0,10.914
0.021,-0.0025,2.119,12.619,80.0,10.912
0.024,-0.0018,2.119,12.615,80.0,10.914
0.007,-0.0013,2.118,12.611,80.0,10.912
0.045,0.0039,2.118,12.607,80.0,10.908
-0.418,-0.0062,2.118,12.602,80.0,10.904
0.081,-0.0029,2.118,12.6,80.0,10.904
0.093,0.0019,2.116,12.592,80.0,10.904
0.024,-0.018,2.116,12.59,80.0,10.908
0.032,-0.0162,2.114,12.585,80.0,10.908
0.023,-0.011,2.114,12.582,80.0,10.902
0.014,-0.008,2.113,12.577,80.0,10.898
0.009,0.0011,2.113,12.575,80.0,10.892
-0.005,0.0024,2.113,12.57,80.0,10.892
-0.005,0.0024,2.113,12.57,80.0,10.894
0.001,-0.0029,2.111,12.559,80.0,10.894
0.066,0.0022,2.111,12.554,80.0,10.9
0.062,0.0043,2.109,12.55,80.0,10.9
0.008,-0.013,2.108,12.546,80.0,10.88
0.016,-0.0114,2.108,12.544,101.0,10.866
0.009,-0.0052,2.108,12.54,101.0,10.858
0.003,-0.0098,2.108,12.537,101.0,10.852
0.002,-0.0117,2.106,12.528,101.0,10.848
0.016,0.0023,2.106,12.523,101.0,10.846
-0.37,-0.0013,2.104,12.518,101.0,10.844
0.054,-0.0065,2.104,12.513,101.0,10.846
0.053,0.0017,2.103,12.508,101.0,10.852
0.019,0.0031,2.103,12.504,101.0,10.858
-0.009,-0.0121,2.103,12.5,77.0,10.856
0.009,-0.0146,2.103,12.498,77.0,10.854
-0.008,-0.0073,2.101,12.493,77.0,10.852
-0.015,-0.0025,2.101,12.488,77.0,10.852
-0.024,-0.0055,2.099,12.484,77.0,10.852
-0.041,-0.0016,2.101,12.48,77.0,10.848
-0.006,0.0005,2.098,12.477,77.0,10.846
-0.456,-0.0065,2.098,12.474,77.0,10.842
0.01,-0.0076,2.098,12.472,77.0,10.836
0.024,0.0021,2.098,12.469,77.0,10.832
-0.023,0.002,2.098,12.465,77.0,10.83
-0.017,-0.0173,2.097,12.462,85.0,10.826
0.013,-0.0084,2.096,12.458,85.0,10.824
0.011,-0.0054,2.096,12.453,85.0,10.82
0.01,-0.0102,2.094,12.448,85.0,10.802
0.016,0.0016,2.093,12.44,85.0,10.788
-0.341,0.0019,2.093,12.436,85.0,10.78
0.009,-0.0034,2.093,12.431,85.0,10.782
0.078,-0.0054,2.093,12.427,85.0,10.778
0.088,0.0011,2.093,12.423,85.0,10.77
0.019,-0.0033,2.093,12.421,85.0,10.758
0.044,-0.0179,2.091,12.418,87.0,10.75
0.051,-0.0069,2.091,12.415,87.0,10.742
