ECG,EMG,foot GSR,hand GSR,HR,marker,RESP
0.117,0.35475,6.39,5.293,59.0,16.63,48.77
-0.139,0.305625,6.386,5.291,56.0,16.6,48.7
-0.142,0.372875,6.385,5.288,56.0,16.63,48.58
-0.143,0.3755,6.381,5.285,56.0,16.64,48.39
-0.152,0.2305,6.379,5.283,56.0,16.6,48.27
-0.155,0.16575,6.376,5.28,56.0,16.59,48.2
-0.156,0.362625,6.375,5.278,56.0,16.63,48.15
-0.155,0.271875,6.37,5.273,56.0,16.62,48.19
-0.148,0.25375,6.369,5.271,56.0,16.59,48.19
-0.096,0.119125,6.366,5.269,56.0,16.6,48.12
-0.153,0.160625,6.364,5.266,56.0,16.63,48.14
-0.141,0.372875,6.362,5.264,56.0,16.62,48.19
0.2,0.27975,6.36,5.26,56.0,16.62,48.15
-0.06,0.196875,6.357,5.259,56.0,16.62,48.15
0.015,0.199375,6.354,5.256,56.0,16.62,48.19
0.153,0.227875,6.353,5.253,56.0,16.62,48.21
0.223,0.199375,6.35,5.251,56.0,16.62,48.19
-0.093,0.227875,6.348,5.248,56.0,16.62,48.18
-0.143,0.163125,6.344,5.245,56.0,16.62,48.21
-0.133,0.227875,6.343,5.243,56.0,16.62,48.18
-0.142,0.160625,6.34,5.24,56.0,16.6,48.03
-0.148,0.227875,6.338,5.238,56.0,16.6,47.99
-0.15,0.328875,6.335,5.235,56.0,16.59,48.01
-0.151,0.22525,6.333,5.233,56.0,16.59,48.01
-0.146,0.227875,6.33,5.229,56.0,16.58,48.04
-0.094,0.2745,6.328,5.228,56.0,16.59,48.07
-0.14,0.227875,6.325,5.224,56.0,16.59,48.08
-0.144,0.328875,6.323,5.223,56.0,16.57,48.13
0.217,0.36775,6.319,5.219,56.0,16.56,48.28
-0.054,0.29525,6.318,5.216,56.0,16.58,48.53
0.018,0.1165,6.315,5.214,56.0,16.6,48.72
0.16,0.02325,6.313,5.213,56.0,16.59,48.94
0.253,0.31075,6.31,5.211,56.0,16.59,49.17
-0.065,0.362625,6.308,5.207,56.0,16.59,49.38
-0.128,0.227875,6.304,5.206,57.0,16.59,49.59
-0.119,0.1165,6.303,5.203,57.0,16.58,49.77
-0.121,0.2745,6.3,5.201,57.0,16.6,49.91
-0.12,0.313375,6.299,5.197,57.0,16.6,50.08
-0.116,0.29525,6.295,5.196,57.0,16.6,50.23
-0.079,0.227875,6.294,5.192,57.0,16.62,50.4
-0.089,0.25375,6.29,5.189,57.0,16.62,50.57
-0.118,0.220125,6.289,5.187,57.0,16.62,50.6
0.283,0.292625,6.285,5.184,57.0,16.59,50.63
-0.111,0.297875,6.284,5.182,57.0,16.6,50.69
0.001,0.02075,6.282,5.181,57.0,16.59,50.67
0.114,0.163125,6.279,5.178,57.0,16.6,50.59
0.265,0.22525,6.277,5.174,57.0,16.59,50.49
0.018,0.36775,6.274,5.173,57.0,16.6,50.39
-0.13,0.2305,6.272,5.171,65.0,16.59,50.24
-0.124,0.347,6.27,5.168,65.0,16.58,50.04
-0.13,0.406625,6.267,5.166,65.0,16.58,49.82
-0.139,0.385875,6.265,5.163,65.0,16.57,49.59
-0.141,0.313375,6.262,5.161,65.0,16.57,49.41
-0.109,0.0285,6.26,5.158,65.0,16.58,49.27
-0.104,0.25125,6.257,5.156,65.0,16.58,49.17
-0.15,0.3315,6.255,5.153,65.0,16.57,49.06
0.288,0.248625,6.253,5.152,65.0,16.54,48.93
-0.147,0.3315,6.251,5.149,65.0,16.56,48.82
-0.014,0.25125,6.248,5.147,65.0,16.56,48.73
0.099,0.163125,6.246,5.146,65.0,16.56,48.68
0.034,0.271875,6.245,5.142,65.0,16.56,48.62
-0.044,0.271875,6.242,5.141,65.0,16.56,48.55
-0.135,0.271875,6.24,5.138,65.0,16.57,48.48
-0.126,0.36,6.237,5.136,65.0,16.57,48.44
-0.125,0.38325,6.236,5.133,65.0,16.58,48.32
-0.132,0.308125,6.231,5.128,65.0,16.56,48.19
-0.132,0.233125,6.23,5.128,65.0,16.56,48.19
-0.124,0.2305,6.227,5.126,65.0,16.53,48.18
-0.061,0.277125,6.226,5.124,65.0,16.53,48.2
-0.125,0.29,6.222,5.121,65.0,16.54,48.19
-0.058,0.269375,6.22,5.12,65.0,16.53,48.17
0.197,0.277125,6.217,5.116,65.0,16.56,48.17
-0.026,0.29525,6.216,5.115,65.0,16.58,48.19
0.062,0.25375,6.213,5.112,65.0,16.58,48.2
0.215,0.0285,6.211,5.11,65.0,16.56,48.21
0.242,0.303,6.208,5.109,65.0,16.53,48.21
-0.066,0.33925,6.207,5.105,65.0,16.54,48.21
-0.089,0.29525,6.203,5.104,64.0,16.57,48.19
-0.075,0.942625,6.202,5.101,64.0,16.58,48.19
-0.071,0.09325,6.2,5.099,64.0,16.58,48.1
-0.079,0.031125,6.197,5.096,64.0,16.57,48.07
-0.071,0.264125,6.195,5.095,64.0,16.53,48.08
-0.073,0.269375,6.192,5.09,64.0,16.54,48.09
-0.022,0.271875,6.19,5.087,64.0,16.56,48.07
-0.089,0.119125,6.187,5.086,64.0,16.56,47.98
0.121,0.3185,6.186,5.087,64.0,16.57,47.96
0.121,0.297875,6.184,5.086,64.0,16.56,48.09
0.033,0.227875,6.181,5.086,64.0,16.56,48.16
0.122,0.033625,6.179,5.087,64.0,16.56,48.37
0.272,0.22525,6.176,5.091,64.0,16.56,48.72
0.24,0.29525,6.175,5.089,64.0,16.54,49.0
-0.034,0.398875,6.173,5.087,64.0,16.53,49.13
-0.045,0.2745,6.17,5.084,62.0,16.54,49.15
-0.047,0.163125,6.168,5.081,62.0,16.56,49.05
-0.059,0.160625,6.165,5.077,62.0,16.56,48.91
-0.057,0.3315,6.163,5.075,62.0,16.56,49.06
-0.01,0.33925,6.16,5.071,62.0,16.57,49.35
-0.082,0.38325,6.158,5.07,62.0,16.56,49.71
0.193,0.300375,6.155,5.067,62.0,16.52,49.98
0.028,0.33925,6.153,5.065,62.0,16.51,50.17
0.018,0.35475,6.151,5.062,62.0,16.53,50.31
0.118,0.2745,6.148,5.06,62.0,16.54,50.48
0.276,0.227875,6.146,5.057,62.0,16.56,50.68
0.178,0.347,6.144,5.054,62.0,16.56,50.89
-0.065,0.33925,6.141,5.051,71.0,16.54,51.14
-0.073,0.31075,6.139,5.05,71.0,16.53,51.35
-0.072,0.227875,6.136,5.047,71.0,16.53,51.45
-0.094,0.35225,6.134,5.045,71.0,16.53,51.46
-0.047,0.321125,6.131,5.042,71.0,16.53,51.51
-0.07,0.32625,6.13,5.04,71.0,16.53,51.53
-0.114,0.36775,6.126,5.038,71.0,16.53,51.52
0.299,0.22525,6.125,5.035,71.0,16.53,51.4
-0.093,0.256375,6.121,5.034,71.0,16.53,51.17
0.015,0.3315,6.12,5.032,71.0,16.53,50.89
0.14,0.35475,6.118,5.03,71.0,16.52,50.6
0.285,0.385875,6.115,5.029,71.0,16.52,50.34
0.016,0.372875,6.113,5.028,71.0,16.51,50.1
-0.106,0.35475,6.11,5.027,73.0,16.53,49.83
-0.092,0.3315,6.108,5.029,73.0,16.53,49.6
-0.095,0.19425,6.105,5.03,73.0,16.53,49.36
-0.107,0.25125,6.103,5.033,73.0,16.53,49.15
-0.109,0.163125,6.1,5.035,73.0,16.52,49.0
-0.04,0.269375,6.099,5.041,73.0,16.51,48.91
-0.104,0.39625,6.097,5.048,73.0,16.52,48.9
-0.111,0.328875,6.096,5.057,73.0,16.53,48.85
0.249,0.365125,6.093,5.068,73.0,16.52,48.78
-0.031,0.220125,6.093,5.082,73.0,16.52,48.76
0.04,0.227875,6.091,5.097,73.0,16.51,48.76
0.183,0.2305,6.091,5.116,73.0,16.52,48.77
0.25,0.269375,6.091,5.139,73.0,16.51,48.79
-0.064,0.422125,6.091,5.163,73.0,16.49,48.76
-0.117,0.297875,6.094,5.184,68.0,16.51,48.74
-0.113,0.29525,6.097,5.204,68.0,16.51,48.72
-0.131,0.277125,6.101,5.224,68.0,16.51,48.62
-0.141,0.316,6.106,5.246,68.0,16.51,48.58
-0.147,0.168375,6.114,5.269,68.0,16.49,48.57
-0.143,0.401375,6.122,5.293,68.0,16.49,48.58
-0.081,0.196875,6.132,5.315,68.0,16.49,48.61
-0.151,0.025875,6.145,5.337,68.0,16.49,48.59
-0.135,0.248625,6.157,5.357,68.0,16.48,48.59
0.189,0.227875,6.171,5.377,68.0,16.47,48.59
-0.076,0.2305,6.186,5.399,68.0,16.47,48.6
0.001,0.025875,6.201,5.419,68.0,16.47,48.63
0.15,0.119125,6.216,5.438,62.0,16.46,48.64
0.215,0.27975,6.233,5.451,62.0,16.47,48.64
-0.094,0.357375,6.251,5.465,62.0,16.47,48.63
-0.14,0.292625,6.267,5.476,62.0,16.46,48.61
-0.134,0.313375,6.284,5.483,62.0,16.48,48.58
-0.143,0.259,6.3,5.49,62.0,16.49,48.48
-0.153,0.2745,6.317,5.495,62.0,16.48,48.47
-0.154,0.313375,6.333,5.499,62.0,16.51,48.47
-0.152,0.300375,6.348,5.502,62.0,16.48,48.47
-0.122,0.316,6.361,5.506,62.0,16.49,48.49
-0.119,0.2305,6.375,5.507,62.0,16.51,48.49
-0.158,0.199375,6.386,5.509,62.0,16.51,48.49
0.272,0.264125,6.398,5.505,62.0,16.49,48.5
-0.165,0.3755,6.408,5.504,62.0,16.49,48.54
-0.035,0.297875,6.418,5.5,62.0,16.51,48.57
0.077,0.199375,6.426,5.495,62.0,16.53,48.58
0.246,0.119125,6.432,5.49,62.0,16.62,48.57
0.077,0.3315,6.437,5.485,62.0,16.71,48.58
-0.119,0.1165,6.444,5.48,60.0,16.9,48.57
-0.114,0.114,6.447,5.474,60.0,16.63,48.56
-0.113,0.114,6.45,5.468,60.0,16.76,48.49
-0.121,0.227875,6.451,5.461,60.0,16.68,48.43
-0.117,0.29525,6.452,5.454,60.0,16.74,48.43
-0.11,0.220125,6.451,5.448,60.0,16.69,48.42
-0.103,0.313375,6.45,5.44,60.0,16.71,48.44
-0.053,0.409125,6.447,5.433,60.0,16.69,48.45
-0.111,0.300375,6.442,5.426,60.0,16.69,48.43
-0.089,0.196875,6.44,5.419,60.0,16.68,48.43
0.231,0.35225,6.435,5.411,60.0,16.67,48.48
-0.032,0.256375,6.43,5.405,60.0,16.67,48.55
0.047,0.02325,6.425,5.398,60.0,16.65,48.63
0.198,0.160625,6.418,5.392,60.0,16.64,48.76
0.265,0.29,6.412,5.386,60.0,16.63,48.9
-0.05,0.35475,6.405,5.379,60.0,16.65,49.06
-0.1,0.191625,6.397,5.372,60.0,16.64,49.24
-0.09,0.02075,6.392,5.366,60.0,16.65,49.38
-0.1,0.308125,6.385,5.361,60.0,16.65,49.46
-0.105,0.39625,6.377,5.354,60.0,16.65,49.62
-0.103,0.321125,6.37,5.348,60.0,16.65,49.8
-0.085,0.246,6.364,5.342,60.0,16.65,50.01
-0.049,0.202,6.358,5.336,60.0,16.64,50.2
-0.104,0.02075,6.35,5.331,60.0,16.65,50.32
0.13,0.22275,6.343,5.326,60.0,16.65,50.43
0.075,0.35475,6.336,5.321,60.0,16.65,50.57
-0.003,0.3315,6.33,5.316,60.0,16.65,50.71
0.09,0.328875,6.323,5.311,60.0,16.65,50.78
0.249,0.1165,6.318,5.306,60.0,16.65,50.74
0.188,0.227875,6.31,5.303,60.0,16.65,50.65
-0.074,0.227875,6.305,5.299,63.0,16.65,50.48
-0.091,0.22525,6.298,5.294,63.0,16.65,50.28
-0.089,0.2745,6.293,5.289,63.0,16.65,50.07
-0.105,0.199375,6.288,5.286,63.0,16.65,49.82
-0.108,0.2745,6.28,5.281,63.0,16.64,49.63
-0.108,0.29525,6.275,5.276,63.0,16.63,49.49
-0.1,0.328875,6.271,5.271,63.0,16.64,49.4
-0.048,0.328875,6.266,5.268,63.0,16.64,49.31
-0.105,0.25375,6.261,5.264,63.0,16.63,49.21
-0.06,0.269375,6.253,5.259,63.0,16.63,49.11
0.246,0.292625,6.249,5.256,63.0,16.62,49.07
-0.01,0.313375,6.246,5.253,63.0,16.62,49.03
0.071,0.292625,6.241,5.249,63.0,16.6,49.0
0.229,0.29525,6.236,5.244,63.0,16.6,48.97
0.287,0.31075,6.231,5.241,63.0,16.6,48.93
-0.03,0.3755,6.226,5.238,63.0,16.6,48.89
-0.072,0.33925,6.221,5.234,60.0,16.6,48.85
-0.061,0.341875,6.217,5.231,60.0,16.6,48.81
-0.068,0.199375,6.213,5.228,60.0,16.6,48.68
-0.077,0.160625,6.208,5.224,60.0,16.6,48.64
-0.078,0.163125,6.205,5.22,60.0,16.6,48.61
-0.074,0.160625,6.201,5.218,60.0,16.6,48.61
-0.057,0.199375,6.196,5.214,60.0,16.6,48.64
-0.027,0.334125,6.192,5.212,60.0,16.6,48.63
-0.08,0.0285,6.188,5.208,60.0,16.6,48.62
0.241,0.25125,6.185,5.204,60.0,16.6,48.63
0.023,0.36775,6.181,5.202,60.0,16.6,48.65
0.034,0.401375,6.178,5.199,60.0,16.6,48.68
0.131,0.292625,6.174,5.196,60.0,16.6,48.68
0.307,0.02325,6.171,5.193,60.0,16.6,48.68
0.232,0.227875,6.166,5.189,60.0,16.6,48.69
-0.042,0.22525,6.164,5.186,60.0,16.6,48.68
-0.043,0.196875,6.159,5.183,59.0,16.59,48.68
-0.042,0.196875,6.156,5.181,59.0,16.59,48.62
-0.054,0.378125,6.153,5.178,59.0,16.59,48.54
-0.059,0.25125,6.149,5.174,59.0,16.6,48.53
-0.058,0.0155,6.146,5.172,59.0,16.6,48.53
-0.054,0.308125,6.139,5.166,59.0,16.6,48.58
-0.037,0.25125,6.139,5.167,59.0,16.6,48.58
0.003,0.227875,6.136,5.163,59.0,16.6,48.56
-0.048,0.227875,6.134,5.159,59.0,16.59,48.54
0.188,0.269375,6.13,5.157,59.0,16.59,48.58
0.124,0.3755,6.126,5.154,59.0,16.59,48.6
0.06,0.227875,6.123,5.152,59.0,16.59,48.61
0.152,0.256375,6.12,5.149,59.0,16.6,48.6
0.324,0.227875,6.116,5.147,59.0,16.6,48.62
0.286,0.284875,6.114,5.143,59.0,16.6,48.62
-0.004,0.29525,6.11,5.141,59.0,16.6,48.61
-0.022,0.25375,6.109,5.138,58.0,16.6,48.59
-0.014,0.19425,6.105,5.136,58.0,16.59,48.55
-0.023,0.25125,6.103,5.133,58.0,16.6,48.47
-0.022,0.25375,6.1,5.131,58.0,16.6,48.5
-0.015,0.02075,6.097,5.127,58.0,16.59,48.61
-0.011,0.158,6.093,5.125,58.0,16.59,48.76
0.024,0.19425,6.091,5.122,58.0,16.59,48.95
0.035,0.313375,6.087,5.12,58.0,16.58,49.1
0.005,0.031125,6.084,5.117,58.0,16.58,49.27
0.443,0.29,6.082,5.115,58.0,16.58,49.46
0.022,0.3315,6.079,5.112,58.0,16.58,49.66
0.152,0.277125,6.077,5.11,58.0,16.58,49.86
0.27,0.334125,6.073,5.107,58.0,16.57,50.02
0.45,0.033625,6.071,5.105,58.0,16.57,50.2
0.248,0.271875,6.068,5.102,58.0,16.56,50.38
0.057,0.409125,6.066,5.1,58.0,16.57,50.56
0.056,0.259,6.063,5.097,58.0,16.56,50.72
0.044,0.391,6.061,5.095,58.0,16.56,50.83
0.034,0.313375,6.057,5.092,58.0,16.56,50.9
0.029,0.378125,6.054,5.09,58.0,16.56,50.96
0.032,0.025875,6.051,5.087,58.0,16.56,50.97
0.073,0.19425,6.048,5.085,58.0,16.56,50.93
0.008,0.3755,6.046,5.084,58.0,16.56,50.83
0.102,0.305625,6.043,5.08,59.0,16.56,50.64
0.312,0.39625,6.041,5.077,59.0,16.56,50.43
0.089,0.114,6.038,5.076,59.0,16.56,50.28
0.168,0.196875,6.034,5.074,59.0,16.56,50.14
0.326,0.328875,6.032,5.071,59.0,16.56,49.99
0.336,0.36775,6.029,5.067,59.0,16.56,49.82
0.018,0.347,6.027,5.066,59.0,16.54,49.65
-0.013,0.163125,6.024,5.064,59.0,16.54,49.49
-0.01,0.111375,6.022,5.061,50.0,16.54,49.32
-0.022,0.357375,6.018,5.059,50.0,16.54,49.11
-0.033,0.25375,6.016,5.056,50.0,16.54,48.98
-0.038,0.271875,6.013,5.054,50.0,16.54,48.9
-0.019,0.163125,6.011,5.051,50.0,16.53,48.85
0.001,0.227875,6.009,5.049,50.0,16.53,48.82
-0.054,0.163125,6.006,5.046,50.0,16.54,48.75
0.329,0.25125,6.004,5.045,50.0,16.53,48.71
-0.018,0.341875,6.0,5.042,50.0,16.54,48.71
0.05,0.3755,5.999,5.04,50.0,16.53,48.71
0.144,0.196875,5.995,5.038,50.0,16.54,48.71
0.322,0.1165,5.994,5.037,50.0,16.53,48.7
0.204,0.114,5.991,5.034,50.0,16.53,48.7
-0.055,0.163125,5.989,5.032,50.0,16.54,48.68
-0.06,0.35475,5.986,5.029,50.0,16.54,48.68
-0.059,0.42475,5.984,5.027,50.0,16.53,48.61
-0.072,0.292625,5.981,5.024,50.0,16.54,48.53
-0.08,0.0155,5.979,5.022,50.0,16.53,48.5
-0.083,0.196875,5.975,5.02,50.0,16.53,48.51
-0.053,0.111375,5.974,5.017,50.0,16.53,48.51
-0.058,0.370375,5.971,5.015,50.0,16.53,48.54
-0.101,0.220125,5.969,5.013,50.0,16.53,48.52
0.339,0.269375,5.966,5.012,50.0,16.53,48.52
-0.115,0.313375,5.964,5.008,50.0,16.53,48.54
0.016,0.269375,5.961,5.007,50.0,16.53,48.57
0.119,0.02325,5.959,5.004,62.0,16.53,48.58
0.299,0.018125,5.957,5.002,62.0,16.53,48.58
0.128,0.365125,5.955,5.0,62.0,16.53,48.58
-0.095,0.401375,5.952,4.998,62.0,16.53,48.56
-0.1,0.29525,5.95,4.995,62.0,16.53,48.55
-0.097,0.365125,5.947,4.994,62.0,16.53,48.51
-0.106,0.277125,5.946,4.992,62.0,16.53,48.5
-0.113,0.248625,5.942,4.989,62.0,16.53,48.61
-0.109,0.248625,5.94,4.987,62.0,16.52,48.75
-0.078,0.196875,5.937,4.984,62.0,16.52,48.94
-0.07,0.308125,5.936,4.983,62.0,16.52,49.14
-0.111,0.19425,5.934,4.982,62.0,16.52,49.3
0.311,0.202,5.931,4.979,62.0,16.52,49.47
-0.099,0.33925,5.929,4.978,62.0,16.53,49.68
0.008,0.16575,5.926,4.975,62.0,16.53,49.9
0.112,0.196875,5.925,4.974,61.0,16.54,50.08
0.301,0.02075,5.922,4.972,61.0,16.56,50.25
0.174,0.336625,5.92,4.97,61.0,16.54,50.44
-0.064,0.277125,5.919,4.969,61.0,16.54,50.59
-0.075,0.227875,5.917,4.967,61.0,16.53,50.74
-0.08,0.227875,5.914,4.967,61.0,16.53,50.86
-0.093,0.2745,5.912,4.964,61.0,16.53,50.9
-0.101,0.248625,5.909,4.963,61.0,16.53,50.94
-0.082,0.357375,5.907,4.96,61.0,16.54,50.89
-0.066,0.227875,5.904,4.959,61.0,16.54,50.82
-0.116,0.29525,5.902,4.957,61.0,16.53,50.69
0.196,0.2305,5.899,4.955,61.0,16.53,50.47
0.004,0.341875,5.897,4.954,61.0,16.53,50.26
-0.007,0.196875,5.894,4.952,61.0,16.53,50.09
0.089,0.163125,5.892,4.95,65.0,16.53,49.94
0.268,0.1165,5.89,4.95,65.0,16.53,49.76
0.179,0.305625,5.888,4.947,65.0,16.53,49.56
-0.092,0.36,5.885,4.946,65.0,16.53,49.38
-0.098,0.341875,5.883,4.945,65.0,16.53,49.23
-0.096,0.018125,5.882,4.942,65.0,16.53,49.06
-0.106,0.25375,5.879,4.941,65.0,16.53,48.87
-0.112,0.1165,5.877,4.938,65.0,16.53,48.78
-0.112,0.1165,5.874,4.937,65.0,16.53,48.74
-0.107,0.19425,5.872,4.935,65.0,16.53,48.7
-0.06,0.227875,5.869,4.933,65.0,16.53,48.65
-0.117,0.31075,5.868,4.931,65.0,16.53,48.6
-0.116,0.308125,5.865,4.93,65.0,16.53,48.6
0.262,0.29,5.863,4.927,65.0,16.53,48.63
-0.032,0.378125,5.86,4.925,65.0,16.52,48.63
0.037,0.2745,5.859,4.923,65.0,16.52,48.62
0.18,0.02075,5.857,4.921,60.0,16.52,48.61
0.287,0.292625,5.854,4.92,60.0,16.52,48.6
-0.049,0.347,5.852,4.917,60.0,16.52,48.59
-0.117,0.35225,5.852,4.915,60.0,16.52,48.58
-0.111,0.32625,5.849,4.913,60.0,16.52,48.58
-0.121,0.163125,5.845,4.912,60.0,16.52,48.48
-0.137,0.25125,5.844,4.91,60.0,16.52,48.42
-0.136,0.196875,5.842,4.907,60.0,16.51,48.42
-0.142,0.03625,5.839,4.906,60.0,16.52,48.43
-0.133,0.25125,5.837,4.903,60.0,16.52,48.47
-0.083,0.305625,5.835,4.901,60.0,16.52,48.47
-0.144,0.398875,5.833,4.898,60.0,16.51,48.44
-0.117,0.3445,5.832,4.897,60.0,16.52,48.46
0.214,0.313375,5.83,4.895,60.0,16.51,48.48
-0.056,0.29525,5.828,4.893,60.0,16.52,48.5
0.016,0.227875,5.825,4.891,60.0,16.52,48.52
0.165,0.22525,5.823,4.888,58.0,16.54,48.54
0.245,0.357375,5.821,4.887,58.0,16.54,48.54
-0.092,0.248625,5.818,4.885,58.0,16.52,48.53
-0.146,0.16575,5.817,4.882,58.0,16.49,48.52
-0.138,0.25375,5.816,4.882,58.0,16.52,48.5
-0.15,0.2875,5.813,4.878,58.0,16.52,48.44
-0.158,0.163125,5.811,4.877,58.0,16.52,48.42
-0.161,0.292625,5.81,4.875,58.0,16.52,48.42
-0.159,0.316,5.807,4.872,58.0,16.53,48.46
-0.155,0.119125,5.805,4.87,58.0,16.53,48.57
-0.106,0.114,5.802,4.87,58.0,16.53,48.67
-0.151,0.3445,5.801,4.867,58.0,16.52,48.79
-0.166,0.341875,5.798,4.865,58.0,16.52,49.0
0.228,0.300375,5.797,4.863,58.0,16.52,49.27
-0.08,0.31075,5.795,4.861,58.0,16.52,49.49
-0.006,0.163125,5.792,4.86,58.0,16.52,49.68
0.132,0.025875,5.79,4.858,57.0,16.52,49.87
0.275,0.240875,5.788,4.855,57.0,16.51,50.06
-0.04,0.393625,5.786,4.854,57.0,16.51,50.24
-0.135,0.261625,5.785,4.853,57.0,16.51,50.42
-0.135,0.32375,5.782,4.85,57.0,16.51,50.59
-0.145,0.25375,5.781,4.849,57.0,16.51,50.67
-0.166,0.347,5.778,4.846,57.0,16.51,50.77
-0.172,0.163125,5.777,4.844,57.0,16.51,50.88
-0.152,0.227875,5.775,4.843,57.0,16.51,50.98
-0.118,0.313375,5.772,4.84,57.0,16.51,51.01
-0.174,0.36,5.77,4.839,57.0,16.51,50.93
0.141,0.28225,5.767,4.838,57.0,16.51,50.81
-0.047,0.404,5.766,4.835,57.0,16.49,50.73
-0.063,0.25125,5.765,4.833,57.0,16.49,50.67
0.036,0.16575,5.762,4.833,63.0,16.48,50.6
0.21,0.1165,5.76,4.829,63.0,16.49,50.5
0.129,0.32375,5.758,4.828,63.0,16.49,50.38
-0.144,0.308125,5.757,4.826,63.0,16.49,50.23
-0.157,0.19425,5.753,4.824,63.0,16.51,50.09
-0.151,0.02075,5.752,4.823,63.0,16.51,49.92
-0.165,0.095875,5.75,4.82,63.0,16.51,49.69
-0.202,0.46875,5.747,4.818,63.0,16.49,49.51
-0.235,0.505,5.746,4.816,63.0,16.51,49.4
-0.158,0.160625,5.745,4.815,63.0,16.52,49.32
-0.105,0.2435,5.743,4.813,63.0,16.52,49.27
-0.184,0.277125,5.74,4.811,63.0,16.51,49.18
-0.142,0.25125,5.739,4.809,63.0,16.51,49.06
0.231,0.2745,5.736,4.808,63.0,16.49,48.67
-0.039,0.321125,5.735,4.808,63.0,16.48,48.34
0.039,0.349625,5.733,4.806,63.0,16.48,48.16
0.183,0.19425,5.73,4.805,63.0,16.48,48.19
0.287,0.2745,5.729,4.803,63.0,16.48,48.33
-0.047,0.36,5.725,4.803,63.0,16.43,48.61
-0.143,0.3315,5.724,4.8,60.0,16.42,48.81
-0.158,0.29,5.723,4.799,60.0,16.38,48.89
-0.168,0.1165,5.72,4.798,60.0,16.47,48.54
-0.183,0.160625,5.718,4.795,60.0,16.69,48.36
-0.187,0.1165,5.715,4.793,60.0,16.75,48.55
-0.161,0.02075,5.715,4.79,60.0,16.86,48.72
-0.17,0.02325,5.713,4.79,60.0,16.64,49.3
-0.212,0.25375,5.71,4.788,60.0,16.54,50.12
0.234,0.28225,5.71,4.786,60.0,16.58,50.64
-0.226,0.32625,5.708,4.784,60.0,16.63,50.99
-0.099,0.25125,5.705,4.783,60.0,16.69,51.24
0.01,0.36,5.705,4.781,64.0,16.47,51.38
0.198,0.36,5.703,4.78,64.0,16.3,51.44
0.0,0.370375,5.701,4.778,64.0,16.32,51.43
-0.196,0.35475,5.7,4.776,64.0,16.27,51.58
-0.201,0.269375,5.698,4.775,64.0,16.42,51.83
-0.19,0.3885,5.696,4.773,64.0,16.76,51.98
-0.206,0.05175,5.695,4.773,64.0,16.93,52.03
-0.176,0.1165,5.694,4.771,64.0,17.32,52.16
-0.161,0.25375,5.691,4.771,64.0,16.92,52.35
-0.217,0.163125,5.69,4.771,64.0,16.65,52.73
0.229,0.271875,5.689,4.771,64.0,16.75,53.45
-0.228,0.393625,5.688,4.772,64.0,16.91,54.21
-0.104,0.271875,5.685,4.773,64.0,16.73,54.52
0.013,0.308125,5.685,4.776,71.0,16.57,54.6
0.203,0.114,5.683,4.781,71.0,16.43,54.42
-0.002,0.3755,5.683,4.787,71.0,16.47,54.13
-0.202,0.401375,5.68,4.795,71.0,16.27,53.84
-0.184,0.297875,5.68,4.805,71.0,16.26,53.65
-0.181,0.1165,5.683,4.816,71.0,16.32,53.59
-0.189,0.02075,5.684,4.829,71.0,16.45,53.57
-0.155,0.02075,5.689,4.844,71.0,16.29,53.6
-0.153,0.25125,5.694,4.858,71.0,16.08,53.6
-0.214,0.25125,5.699,4.871,71.0,16.46,53.44
0.233,0.22275,5.704,4.888,71.0,16.67,53.0
-0.224,0.313375,5.71,4.907,71.0,16.42,52.1
-0.107,0.227875,5.716,4.925,71.0,16.53,50.89
0.025,0.401375,5.725,4.942,71.0,16.64,50.08
0.204,0.256375,5.734,4.96,71.0,16.86,49.88
0.0,0.347,5.742,4.977,71.0,17.18,49.7
-0.16,0.227875,5.752,4.993,71.0,17.1,49.62
-0.155,0.3315,5.763,5.01,71.0,16.67,49.24
-0.158,0.341875,5.774,5.026,71.0,16.78,47.66
-0.151,0.328875,5.788,5.042,71.0,16.84,46.61
-0.113,0.191625,5.802,5.061,71.0,16.91,46.41
-0.194,0.357375,5.816,5.081,71.0,16.85,46.7
0.153,0.341875,5.83,5.102,71.0,16.96,46.85
-0.114,0.31075,5.845,5.131,71.0,17.08,47.04
-0.061,0.38075,5.86,5.16,71.0,17.29,47.52
0.042,0.240875,5.877,5.19,71.0,17.43,47.92
0.221,0.025875,5.893,5.222,71.0,17.56,48.06
0.1,0.308125,5.912,5.26,71.0,17.58,48.17
-0.14,0.3445,5.931,5.306,76.0,17.56,48.24
-0.141,0.163125,5.952,5.347,76.0,17.54,48.46
-0.139,0.269375,5.975,5.393,76.0,17.61,48.79
-0.15,0.39625,5.999,5.438,76.0,17.72,48.89
-0.098,0.27975,6.024,5.481,76.0,17.68,48.89
-0.142,0.341875,6.049,5.524,76.0,17.64,49.0
-0.167,0.2745,6.077,5.563,76.0,17.76,49.11
0.209,0.256375,6.105,5.599,76.0,17.82,49.05
-0.075,0.41175,6.135,5.634,76.0,17.8,48.82
0.004,0.29525,6.165,5.67,76.0,17.7,48.71
0.139,0.02325,6.197,5.704,76.0,17.56,48.87
0.262,0.28225,6.227,5.74,76.0,17.61,48.98
-0.048,0.422125,6.259,5.776,76.0,17.54,48.94
-0.118,0.32625,6.291,5.811,74.0,17.56,48.94
-0.109,0.25375,6.323,5.848,74.0,17.59,48.86
-0.078,0.119125,6.356,5.887,74.0,17.78,48.7
-0.072,0.202,6.388,5.926,74.0,17.9,48.55
-0.134,0.29525,6.416,5.971,74.0,17.92,48.45
0.296,0.284875,6.446,6.027,74.0,17.95,48.36
-0.135,0.303,6.472,6.082,74.0,18.15,48.33
0.006,0.119125,6.497,6.131,74.0,18.33,48.35
0.13,0.16575,6.521,6.181,74.0,18.44,48.32
0.298,0.160625,6.543,6.235,74.0,18.35,48.35
0.057,0.26675,6.563,6.288,74.0,17.93,48.47
-0.078,0.414375,6.583,6.323,81.0,17.89,48.66
-0.062,0.277125,6.603,6.353,81.0,18.08,48.86
-0.055,0.163125,6.62,6.386,81.0,18.33,48.91
-0.01,0.25375,6.64,6.413,81.0,18.58,48.87
-0.095,0.292625,6.657,6.442,81.0,18.5,48.89
0.053,0.227875,6.677,6.459,81.0,18.51,48.9
0.128,0.36775,6.695,6.473,81.0,18.29,48.89
-0.016,0.038875,6.712,6.489,81.0,18.24,48.84
0.07,0.02325,6.728,6.498,81.0,18.29,48.8
0.233,0.025875,6.743,6.509,81.0,18.31,48.84
0.186,0.196875,6.756,6.522,81.0,18.31,48.9
-0.072,0.3315,6.766,6.528,81.0,18.26,48.9
-0.079,0.25375,6.778,6.524,81.0,18.19,48.87
-0.078,0.199375,6.786,6.518,81.0,18.23,48.83
-0.093,0.271875,6.793,6.51,81.0,18.12,48.76
-0.099,0.163125,6.798,6.494,81.0,18.11,48.78
-0.038,0.114,6.799,6.479,81.0,18.19,48.85
-0.084,0.2745,6.802,6.463,81.0,18.19,49.0
-0.105,0.328875,6.802,6.445,81.0,18.03,49.15
0.286,0.25125,6.799,6.426,81.0,18.04,49.28
-0.044,0.27975,6.795,6.405,81.0,18.08,49.46
0.042,0.292625,6.793,6.38,81.0,17.5,49.64
0.172,0.155375,6.786,6.355,81.0,16.49,49.83
0.313,0.2435,6.78,6.333,81.0,16.23,50.02
0.048,0.362625,6.773,6.308,81.0,15.87,50.17
-0.045,0.3885,6.764,6.284,69.0,15.97,50.33
-0.042,0.3755,6.754,6.263,69.0,15.87,50.47
-0.054,0.25125,6.744,6.241,69.0,15.71,50.54
-0.063,0.25125,6.733,6.22,69.0,15.76,50.64
-0.04,0.018125,6.721,6.2,69.0,16.08,50.81
-0.015,0.25125,6.709,6.18,69.0,15.88,51.01
-0.076,0.25375,6.697,6.163,69.0,15.86,51.2
0.278,0.269375,6.683,6.144,69.0,15.86,51.29
-0.001,0.313375,6.671,6.128,69.0,15.87,51.38
0.038,0.155375,6.658,6.111,69.0,15.82,51.49
0.137,0.297875,6.646,6.094,69.0,15.55,51.6
0.295,0.199375,6.633,6.079,69.0,15.47,51.71
0.191,0.25125,6.62,6.063,69.0,15.7,51.79
-0.03,0.378125,6.607,6.047,69.0,16.15,51.88
-0.043,0.25375,6.595,6.034,69.0,16.19,51.94
-0.053,0.199375,6.582,6.018,69.0,16.62,51.9
-0.065,0.305625,6.57,6.005,69.0,17.12,51.84
-0.058,0.2745,6.557,5.992,69.0,16.75,51.79
0.004,0.271875,6.546,5.978,69.0,16.74,51.75
-0.063,0.277125,6.535,5.966,69.0,20.68,51.74
-0.039,0.277125,6.524,5.953,69.0,24.04,51.67
0.311,0.292625,6.513,5.941,69.0,26.53,51.56
0.024,0.248625,6.503,5.93,69.0,27.35,51.48
0.1,0.114,6.493,5.919,69.0,23.62,51.42
0.236,0.313375,6.482,5.909,69.0,18.48,51.35
0.28,0.22525,6.473,5.896,69.0,15.69,51.27
-0.013,0.31075,6.463,5.886,69.0,13.91,51.14
-0.049,0.1165,6.453,5.876,69.0,13.87,50.98
-0.043,0.3445,6.443,5.866,69.0,13.95,50.79
-0.055,0.303,6.435,5.856,69.0,13.87,50.54
-0.067,0.292625,6.426,5.846,69.0,13.86,50.34
-0.07,0.22525,6.418,5.836,69.0,13.82,50.19
-0.038,0.199375,6.41,5.829,69.0,13.95,50.08
-0.043,0.199375,6.401,5.819,69.0,13.99,49.95
-0.092,0.227875,6.393,5.812,69.0,14.15,49.81
0.364,0.196875,6.386,5.803,69.0,14.03,49.67
-0.096,0.300375,6.378,5.794,69.0,13.87,49.57
0.038,0.297875,6.371,5.787,69.0,13.95,49.49
0.154,0.362625,6.364,5.778,69.0,14.06,49.4
0.325,0.3885,6.358,5.772,69.0,13.95,49.29
0.143,0.378125,6.35,5.764,69.0,13.93,49.2
-0.045,0.303,6.343,5.757,64.0,13.99,49.09
-0.045,0.277125,6.338,5.749,64.0,13.94,49.0
-0.053,0.36775,6.33,5.744,64.0,13.95,48.82
-0.068,0.409125,6.324,5.737,64.0,13.93,48.67
-0.074,0.372875,6.318,5.73,64.0,13.93,48.61
-0.077,0.3755,6.313,5.724,64.0,13.93,48.57
-0.037,0.292625,6.305,5.716,64.0,13.91,48.56
-0.056,0.22525,6.3,5.711,64.0,13.92,48.51
-0.088,0.25375,6.295,5.704,64.0,13.92,48.46
0.343,0.26675,6.288,5.697,64.0,13.91,48.45
-0.076,0.349625,6.283,5.691,64.0,13.91,48.45
0.048,0.25375,6.278,5.686,64.0,13.91,48.47
0.166,0.349625,6.273,5.679,64.0,13.89,48.48
0.332,0.1165,6.266,5.674,64.0,13.89,48.47
0.121,0.328875,6.262,5.667,64.0,13.89,48.47
-0.044,0.199375,6.256,5.661,62.0,13.89,48.47
-0.042,0.199375,6.251,5.657,62.0,13.89,48.44
-0.057,0.271875,6.248,5.652,62.0,13.89,48.36
-0.069,0.29525,6.243,5.647,62.0,13.88,48.31
-0.078,0.269375,6.238,5.639,62.0,13.88,48.31
-0.071,0.196875,6.233,5.634,62.0,13.87,48.32
-0.058,0.277125,6.228,5.629,62.0,13.87,48.36
-0.031,0.2305,6.223,5.624,62.0,13.87,48.36
-0.092,0.25375,6.218,5.617,62.0,13.87,48.35
0.191,0.271875,6.213,5.612,62.0,13.87,48.36
0.007,0.328875,6.211,5.607,62.0,13.86,48.4
-0.006,0.271875,6.206,5.602,62.0,13.86,48.42
0.085,0.1165,6.201,5.597,62.0,13.86,48.43
0.253,0.02075,6.196,5.592,62.0,13.86,48.44
0.193,0.305625,6.193,5.587,62.0,13.86,48.44
-0.072,0.292625,6.188,5.582,60.0,13.86,48.43
-0.088,0.163125,6.184,5.577,60.0,13.86,48.44
-0.098,0.32625,6.179,5.572,60.0,13.86,48.45
-0.121,0.199375,6.175,5.567,60.0,13.86,48.47
-0.134,0.199375,6.171,5.562,60.0,13.86,48.57
-0.141,0.02325,6.166,5.557,60.0,13.86,48.73
-0.117,0.292625,6.161,5.552,60.0,13.86,48.92
-0.119,0.29,6.156,5.547,60.0,13.84,49.08
-0.162,0.378125,6.154,5.542,60.0,13.84,49.22
0.257,0.32625,6.149,5.537,60.0,13.84,49.4
-0.175,0.316,6.145,5.532,60.0,13.84,49.62
-0.05,0.191625,6.141,5.529,60.0,13.84,49.82
0.175,0.0155,6.136,5.525,63.0,13.84,50.0
0.216,0.0155,6.134,5.52,63.0,13.84,50.18
0.008,0.38075,6.129,5.515,63.0,13.84,50.35
-0.17,0.303,6.125,5.51,63.0,13.84,50.52
-0.175,0.119125,6.121,5.507,63.0,13.83,50.68
-0.186,0.158,6.114,5.498,63.0,13.83,50.86
-0.201,0.3885,6.113,5.497,63.0,13.83,50.87
-0.197,0.316,6.109,5.494,63.0,13.83,51.0
-0.146,0.163125,6.105,5.49,63.0,13.83,51.18
-0.191,0.1165,6.101,5.485,63.0,13.83,51.33
-0.204,0.26675,6.098,5.48,63.0,13.84,51.44
0.177,0.297875,6.094,5.478,63.0,13.86,51.53
-0.121,0.25375,6.091,5.473,63.0,13.86,51.6
-0.045,0.041375,6.087,5.468,63.0,13.86,51.7
0.092,0.32375,6.082,5.465,68.0,13.87,51.78
0.181,0.328875,6.079,5.46,68.0,13.86,51.86
-0.12,0.31075,6.074,5.458,68.0,13.86,51.9
-0.182,0.32375,6.072,5.453,68.0,13.86,51.95
-0.181,0.25375,6.068,5.449,68.0,13.86,51.96
-0.189,0.163125,6.064,5.444,68.0,13.86,51.94
-0.19,0.2305,6.061,5.44,68.0,13.86,51.91
-0.129,0.564625,6.057,5.437,68.0,13.86,51.91
-0.187,0.3185,6.053,5.433,68.0,13.84,51.94
-0.203,0.158,6.049,5.429,68.0,13.84,51.93
0.201,0.29,6.046,5.425,68.0,13.84,51.87
-0.077,0.336625,6.042,5.423,68.0,13.84,51.77
0.031,0.163125,6.039,5.418,68.0,13.84,51.57
0.173,0.031125,6.037,5.413,71.0,13.84,51.31
0.275,0.1165,6.032,5.41,71.0,13.84,51.1
-0.004,0.3315,6.029,5.405,71.0,13.84,50.95
-0.068,0.22525,6.026,5.402,71.0,13.83,50.83
-0.053,0.38075,6.022,5.399,71.0,13.84,50.53
-0.049,0.3445,6.019,5.397,71.0,13.83,50.11
-0.09,0.246,6.016,5.393,71.0,13.83,50.01
-0.037,0.2745,6.012,5.391,71.0,13.83,49.76
-0.045,0.3315,6.009,5.387,71.0,13.83,49.33
-0.09,0.297875,6.005,5.385,71.0,13.83,48.85
0.326,0.2745,6.002,5.381,71.0,13.83,48.47
-0.06,0.391,5.999,5.377,71.0,13.83,48.0
0.021,0.33925,5.996,5.373,71.0,13.83,47.67
0.148,0.308125,5.992,5.37,71.0,13.82,47.57
0.3,0.3445,5.99,5.367,71.0,13.82,47.55
0.043,0.357375,5.986,5.365,71.0,13.82,47.69
-0.077,0.269375,5.984,5.363,70.0,13.82,47.82
-0.076,0.119125,5.98,5.361,70.0,13.82,47.89
-0.08,0.41175,5.977,5.358,70.0,13.82,47.77
-0.056,0.38075,5.975,5.353,70.0,13.82,47.52
-0.031,0.3315,5.971,5.351,70.0,13.82,47.59
-0.101,0.22525,5.967,5.346,70.0,13.82,47.72
0.338,0.2875,5.965,5.342,70.0,13.81,47.84
-0.115,0.300375,5.962,5.338,70.0,13.81,47.87
0.023,0.256375,5.96,5.335,70.0,13.81,47.84
0.136,0.248625,5.957,5.333,70.0,13.81,47.93
0.315,0.16575,5.955,5.332,70.0,13.81,48.03
0.115,0.328875,5.951,5.332,70.0,13.81,48.02
-0.061,0.336625,5.95,5.332,76.0,13.81,48.02
-0.056,0.36,5.946,5.335,76.0,13.81,48.08
-0.064,0.31075,5.944,5.338,76.0,13.81,48.09
-0.089,0.199375,5.941,5.343,76.0,13.81,48.2
-0.054,0.119125,5.94,5.349,76.0,13.81,48.23
-0.079,0.277125,5.937,5.357,76.0,13.81,48.25
-0.116,0.25125,5.936,5.369,76.0,13.81,48.31
0.262,0.32625,5.936,5.383,76.0,13.81,48.36
-0.083,0.38075,5.936,5.402,76.0,13.81,48.29
0.001,0.199375,5.937,5.422,76.0,13.81,48.17
0.127,0.372875,5.94,5.446,76.0,13.81,47.9
0.289,0.119125,5.942,5.475,76.0,13.81,47.53
0.002,0.160625,5.947,5.506,76.0,13.81,47.31
-0.096,0.19425,5.952,5.54,72.0,13.8,47.32
-0.083,0.119125,5.961,5.577,72.0,13.81,47.32
-0.09,0.199375,5.968,5.617,72.0,13.81,47.12
-0.032,0.385875,5.981,5.664,72.0,13.81,46.92
-0.105,0.03625,5.993,5.714,72.0,13.8,46.64
-0.117,0.3445,6.007,5.771,72.0,13.8,46.55
0.226,0.271875,6.026,5.823,72.0,13.8,46.61
-0.031,0.119125,6.043,5.875,72.0,13.8,46.55
0.044,0.227875,6.063,5.932,72.0,13.8,46.57
0.202,0.1165,6.084,5.99,72.0,13.8,46.81
0.259,0.248625,6.106,6.046,72.0,13.8,47.35
-0.041,0.442875,6.129,6.106,72.0,13.8,47.82
-0.082,0.370375,6.154,6.162,79.0,13.8,47.93
-0.084,0.435125,6.179,6.215,79.0,13.8,47.84
-0.042,0.1165,6.203,6.268,79.0,13.8,47.73
-0.087,0.261625,6.229,6.313,79.0,13.8,47.73
-0.132,0.36775,6.256,6.361,79.0,13.8,47.76
0.23,0.2745,6.283,6.408,79.0,13.8,47.79
-0.062,0.160625,6.309,6.451,79.0,13.8,47.8
0.012,0.163125,6.336,6.492,79.0,13.78,47.83
0.152,0.163125,6.363,6.534,79.0,13.8,47.87
0.255,0.29,6.39,6.576,79.0,13.78,47.93
-0.043,0.357375,6.415,6.603,79.0,13.78,47.99
-0.108,0.33925,6.439,6.621,82.0,13.78,48.02
-0.107,0.29525,6.461,6.634,82.0,13.78,48.01
-0.07,0.248625,6.481,6.644,82.0,13.78,47.95
-0.111,0.3445,6.501,6.651,82.0,13.78,47.92
-0.159,0.26675,6.519,6.652,82.0,13.78,47.96
0.204,0.233125,6.534,6.651,82.0,13.78,48.0
-0.104,0.202,6.549,6.644,82.0,13.78,48.03
-0.023,0.25375,6.56,6.637,82.0,13.78,48.03
0.111,0.16575,6.57,6.627,84.0,13.78,48.03
0.225,0.2435,6.579,6.614,84.0,13.77,48.08
-0.063,0.414375,6.584,6.601,84.0,13.77,48.1
-0.134,0.25375,6.588,6.585,84.0,13.77,48.13
-0.133,0.163125,6.59,6.568,84.0,13.77,48.15
-0.148,0.202,6.59,6.55,84.0,13.77,48.12
-0.155,0.196875,6.589,6.528,84.0,13.77,48.12
-0.09,0.22525,6.585,6.508,84.0,13.77,48.21
-0.155,0.22525,6.581,6.489,84.0,13.77,48.34
-0.173,0.196875,6.574,6.473,84.0,13.77,48.46
0.194,0.233125,6.567,6.456,84.0,13.77,48.58
-0.093,0.29,6.56,6.439,84.0,13.77,48.7
-0.018,0.2745,6.551,6.422,84.0,13.77,48.84
0.121,0.163125,6.541,6.406,72.0,13.77,49.0
0.212,0.271875,6.533,6.387,72.0,13.76,49.16
-0.074,0.406625,6.523,6.369,72.0,13.77,49.28
-0.125,0.269375,6.51,6.352,72.0,13.77,49.39
-0.121,0.227875,6.5,6.334,72.0,13.77,49.47
-0.133,0.313375,6.49,6.315,72.0,13.76,49.49
-0.137,0.025875,6.479,6.297,72.0,13.77,49.58
-0.135,0.196875,6.468,6.278,72.0,13.77,49.72
-0.085,0.02075,6.455,6.263,72.0,13.77,49.9
-0.105,0.313375,6.446,6.247,72.0,13.77,50.03
-0.134,0.191625,6.433,6.233,72.0,13.77,50.11
0.269,0.303,6.423,6.218,72.0,13.77,50.22
-0.1,0.370375,6.411,6.203,72.0,13.77,50.37
0.015,0.378125,6.4,6.189,72.0,13.76,50.52
0.136,0.277125,6.39,6.18,72.0,13.77,50.65
0.274,0.2745,6.378,6.169,72.0,13.76,50.77
0.045,0.362625,6.368,6.156,72.0,13.76,50.87
-0.065,0.02075,6.359,6.145,65.0,13.76,50.93
-0.065,0.25375,6.349,6.132,65.0,13.77,50.97
-0.076,0.31075,6.339,6.12,65.0,13.76,50.97
-0.078,0.300375,6.329,6.109,65.0,13.76,50.97
-0.07,0.158,6.319,6.096,65.0,13.76,51.01
-0.011,0.19425,6.309,6.085,65.0,13.76,51.03
-0.085,0.3885,6.301,6.075,65.0,13.76,51.06
-0.01,0.284875,6.291,6.064,65.0,13.76,50.99
0.23,0.313375,6.284,6.053,65.0,13.76,50.91
0.01,0.2305,6.276,6.043,65.0,13.76,50.86
0.097,0.227875,6.268,6.034,65.0,13.75,50.86
0.247,0.163125,6.259,6.025,65.0,13.76,50.85
0.248,0.246,6.253,6.015,65.0,13.76,50.81
-0.025,0.391,6.246,6.007,65.0,13.76,50.76
-0.042,0.35475,6.238,5.998,68.0,13.76,50.68
-0.039,0.32625,6.232,5.991,68.0,13.76,50.58
-0.047,0.2745,6.224,5.982,68.0,13.76,50.43
-0.05,0.196875,6.218,5.975,68.0,13.75,50.31
-0.052,0.277125,6.211,5.966,68.0,13.75,50.21
-0.036,0.25125,6.204,5.958,68.0,13.75,50.15
-0.007,0.25125,6.198,5.951,68.0,13.75,50.06
-0.061,0.29525,6.192,5.943,68.0,13.75,49.93
0.266,0.292625,6.186,5.936,68.0,13.75,49.79
0.048,0.370375,6.18,5.928,68.0,13.75,49.69
0.049,0.158,6.174,5.922,68.0,13.75,49.62
0.147,0.163125,6.169,5.915,68.0,13.75,49.53
0.313,0.02325,6.164,5.908,68.0,13.75,49.44
0.224,0.328875,6.157,5.901,68.0,13.75,49.34
-0.023,0.25375,6.151,5.895,68.0,13.75,49.23
-0.032,0.391,6.146,5.889,62.0,13.75,49.12
-0.033,0.2875,6.141,5.881,62.0,13.75,48.97
-0.044,0.227875,6.136,5.875,62.0,13.75,48.78
-0.049,0.199375,6.131,5.87,62.0,13.75,48.7
-0.047,0.25375,6.128,5.863,62.0,13.75,48.64
-0.044,0.3445,6.121,5.855,62.0,13.75,48.62
0.007,0.38325,6.118,5.85,62.0,13.75,48.57
-0.03,0.316,6.114,5.843,62.0,13.75,48.5
-0.051,0.334125,6.109,5.838,62.0,13.75,48.45
0.342,0.292625,6.104,5.833,62.0,13.75,48.43
0.005,0.256375,6.099,5.828,62.0,13.75,48.41
0.086,0.25375,6.097,5.822,62.0,13.75,48.39
0.208,0.347,6.092,5.816,62.0,13.75,48.36
0.354,0.114,6.087,5.811,62.0,13.75,48.35
0.085,0.196875,6.083,5.806,62.0,13.75,48.35
-0.043,0.163125,6.079,5.801,59.0,13.75,48.31
-0.043,0.227875,6.074,5.796,59.0,13.74,48.29
-0.052,0.2745,6.072,5.791,59.0,13.74,48.2
-0.067,0.163125,6.068,5.786,59.0,13.74,48.14
-0.073,0.114,6.064,5.781,59.0,13.74,48.14
-0.077,0.292625,6.059,5.776,59.0,13.74,48.15
-0.076,0.163125,6.056,5.771,59.0,13.74,48.18
-0.048,0.018125,6.052,5.766,59.0,13.75,48.17
-0.047,0.25375,6.049,5.761,59.0,13.75,48.16
-0.089,0.277125,6.044,5.756,59.0,13.75,48.18
0.339,0.313375,6.042,5.751,59.0,13.74,48.21
-0.093,0.3445,6.037,5.747,59.0,13.74,48.23
0.031,0.191625,6.034,5.744,59.0,13.74,48.24
0.142,0.227875,6.032,5.739,59.0,13.74,48.24
0.306,0.25375,6.027,5.734,59.0,13.74,48.25
0.113,0.442875,6.024,5.729,59.0,13.74,48.25
-0.078,0.479125,6.019,5.725,57.0,13.74,48.25
-0.079,0.3315,6.017,5.721,57.0,13.74,48.24
-0.087,0.2745,6.013,5.716,57.0,13.74,48.17
-0.103,0.1165,6.01,5.711,57.0,13.74,48.12
-0.11,0.199375,6.007,5.706,57.0,13.74,48.13
-0.111,0.22275,6.004,5.701,57.0,13.74,48.14
-0.111,0.119125,6.0,5.699,57.0,13.74,48.17
-0.085,0.0155,5.997,5.694,57.0,13.74,48.18
-0.074,0.29525,5.994,5.69,57.0,13.74,48.16
-0.119,0.347,5.991,5.686,57.0,13.74,48.19
0.306,0.191625,5.987,5.681,57.0,13.72,48.21
-0.13,0.316,5.985,5.676,57.0,13.72,48.25
-0.002,0.31075,5.981,5.674,57.0,13.72,48.31
0.106,0.401375,5.977,5.669,57.0,13.72,48.39
0.276,0.114,5.976,5.664,57.0,13.72,48.5
0.097,0.2745,5.972,5.661,57.0,13.72,48.59
-0.104,0.347,5.97,5.657,58.0,13.72,48.67
-0.105,0.031125,5.966,5.653,58.0,13.72,48.77
-0.109,0.119125,5.964,5.649,58.0,13.72,48.81
-0.119,0.119125,5.961,5.644,58.0,13.72,48.85
-0.121,0.196875,5.957,5.642,58.0,13.72,48.98
-0.12,0.196875,5.955,5.637,58.0,13.72,49.12
-0.112,0.227875,5.951,5.633,58.0,13.72,49.3
-0.063,0.292625,5.949,5.631,58.0,13.72,49.4
-0.12,0.29,5.946,5.627,58.0,13.72,49.47
-0.004,0.31075,5.942,5.622,58.0,13.72,49.56
0.145,0.357375,5.941,5.619,58.0,13.72,49.69
-0.022,0.25375,5.937,5.616,58.0,13.72,49.83
0.066,0.1165,5.935,5.612,58.0,13.72,49.95
0.227,0.16575,5.932,5.608,58.0,13.72,50.09
0.235,0.36775,5.929,5.604,58.0,13.72,50.2
-0.058,0.357375,5.926,5.601,58.0,13.72,50.31
-0.082,0.393625,5.924,5.598,60.0,13.72,50.39
-0.074,0.328875,5.921,5.594,60.0,13.72,50.47
-0.082,0.292625,5.919,5.592,60.0,13.72,50.5
-0.083,0.313375,5.917,5.588,60.0,13.72,50.56
-0.079,0.196875,5.913,5.584,60.0,13.72,50.66
-0.031,0.25375,5.91,5.579,60.0,13.72,50.78
-0.065,0.271875,5.907,5.576,60.0,13.72,50.86
-0.089,0.341875,5.904,5.572,60.0,13.72,50.87
0.309,0.2745,5.902,5.569,60.0,13.72,50.9
-0.009,0.160625,5.899,5.566,60.0,13.72,50.94
0.069,0.02075,5.897,5.562,60.0,13.72,51.01
0.206,0.02075,5.893,5.56,60.0,13.72,51.05
0.328,0.215,5.89,5.556,60.0,13.72,51.12
0.027,0.313375,5.888,5.552,60.0,13.72,51.15
-0.055,0.401375,5.885,5.55,64.0,13.72,51.18
-0.051,0.341875,5.883,5.545,64.0,13.72,51.19
-0.059,0.246,5.879,5.542,64.0,13.71,51.15
-0.066,0.28225,5.878,5.539,64.0,13.72,51.11
-0.065,0.29,5.874,5.535,64.0,13.71,51.09
-0.024,0.1165,5.872,5.531,64.0,13.71,51.09
-0.052,0.227875,5.869,5.529,64.0,13.71,51.09
-0.079,0.2745,5.865,5.526,64.0,13.71,51.05
0.341,0.261625,5.863,5.522,64.0,13.72,50.98
-0.029,0.36,5.86,5.519,64.0,13.71,50.96
0.066,0.25125,5.858,5.515,64.0,13.71,50.95
0.193,0.22525,5.854,5.512,64.0,13.71,50.95
0.338,0.19425,5.852,5.51,64.0,13.71,50.95
0.052,0.3445,5.849,5.505,64.0,13.71,50.92
-0.061,0.398875,5.847,5.502,66.0,13.71,50.88
-0.056,0.36,5.843,5.5,66.0,13.71,50.83
-0.065,0.36,5.84,5.496,66.0,13.71,50.72
-0.075,0.277125,5.838,5.492,66.0,13.71,50.6
-0.08,0.385875,5.835,5.49,66.0,13.71,50.54
-0.079,0.163125,5.832,5.486,66.0,13.71,50.48
-0.029,0.220125,5.83,5.482,66.0,13.71,50.46
-0.087,0.349625,5.827,5.48,66.0,13.71,50.38
-0.069,0.163125,5.825,5.477,66.0,13.71,50.27
0.29,0.292625,5.821,5.474,66.0,13.71,50.19
-0.004,0.199375,5.82,5.472,66.0,13.71,50.15
0.071,0.2745,5.817,5.468,66.0,13.71,50.1
0.222,0.196875,5.815,5.465,66.0,13.71,50.05
0.286,0.334125,5.812,5.463,66.0,13.7,49.99
-0.042,0.2875,5.81,5.46,66.0,13.71,49.89
-0.096,0.256375,5.807,5.457,63.0,13.71,49.77
-0.09,0.297875,5.805,5.454,63.0,13.71,49.64
-0.102,0.163125,5.802,5.45,63.0,13.71,49.48
-0.113,0.25375,5.801,5.448,63.0,13.71,49.36
-0.116,0.33925,5.797,5.445,63.0,13.7,49.29
-0.117,0.328875,5.796,5.442,63.0,13.7,49.22
-0.108,0.305625,5.793,5.439,63.0,13.7,49.19
-0.066,0.25375,5.792,5.437,63.0,13.7,49.1
-0.126,0.316,5.79,5.433,63.0,13.7,49.0
0.021,0.2875,5.787,5.43,63.0,13.7,48.93
0.152,0.38075,5.786,5.428,63.0,13.7,48.89
-0.024,0.357375,5.783,5.425,63.0,13.7,48.84
0.061,0.114,5.781,5.422,58.0,13.7,48.78
0.231,0.018125,5.778,5.42,58.0,13.7,48.72
0.233,0.305625,5.777,5.417,58.0,13.7,48.68
-0.083,0.189,5.775,5.413,58.0,13.7,48.64
-0.109,0.2745,5.772,5.41,58.0,13.7,48.58
-0.102,0.248625,5.771,5.409,58.0,13.7,48.49
-0.11,0.202,5.768,5.405,58.0,13.7,48.35
-0.117,0.1165,5.766,5.403,58.0,13.7,48.3
-0.117,0.227875,5.763,5.4,58.0,13.7,48.28
-0.115,0.25375,5.761,5.398,58.0,13.7,48.28
-0.112,0.292625,5.758,5.394,58.0,13.7,48.28
-0.079,0.246,5.757,5.391,58.0,13.7,48.25
-0.076,0.199375,5.755,5.388,58.0,13.7,48.24
-0.118,0.227875,5.752,5.386,58.0,13.7,48.26
0.325,0.163125,5.751,5.383,58.0,13.7,48.29
-0.122,0.42475,5.748,5.381,58.0,13.7,48.3
0.008,0.28225,5.746,5.378,58.0,13.7,48.3
0.112,0.2745,5.745,5.375,58.0,13.7,48.3
0.296,0.0285,5.743,5.373,58.0,13.7,48.32
0.137,0.3885,5.74,5.371,58.0,13.69,48.31
-0.092,0.378125,5.739,5.367,55.0,13.7,48.3
-0.098,0.25375,5.735,5.365,55.0,13.7,48.3
-0.098,0.22275,5.734,5.362,55.0,13.7,48.24
-0.108,0.145,5.731,5.36,55.0,13.7,48.17
-0.114,0.347,5.73,5.357,55.0,13.69,48.17
-0.113,0.29,5.726,5.353,55.0,13.69,48.19
-0.109,0.163125,5.725,5.352,55.0,13.7,48.26
-0.105,0.227875,5.723,5.35,55.0,13.69,48.35
-0.055,0.199375,5.72,5.346,55.0,13.7,48.42
-0.104,0.1165,5.719,5.343,55.0,13.7,48.52
-0.112,0.220125,5.716,5.341,55.0,13.7,48.66
0.262,0.271875,5.714,5.338,55.0,13.7,48.81
-0.029,0.31075,5.711,5.336,55.0,13.7,48.95
0.038,0.2745,5.71,5.333,55.0,13.69,49.08
0.18,0.196875,5.708,5.331,55.0,13.7,49.21
0.302,0.25375,5.705,5.328,55.0,13.7,49.35
-0.022,0.328875,5.704,5.326,55.0,13.69,49.47
-0.106,0.248625,5.701,5.323,55.0,13.69,49.57
-0.097,0.316,5.7,5.321,55.0,13.69,49.67
-0.1,0.119125,5.698,5.318,55.0,13.7,49.7
-0.106,0.114,5.695,5.315,55.0,13.69,49.77
-0.106,0.02325,5.694,5.312,55.0,13.69,49.88
-0.102,0.158,5.693,5.31,55.0,13.69,50.02
-0.095,0.246,5.69,5.307,55.0,13.69,50.16
-0.048,0.031125,5.688,5.305,55.0,13.69,50.24
-0.102,0.3445,5.685,5.303,55.0,13.69,50.29
0.029,0.303,5.684,5.3,55.0,13.69,50.36
0.166,0.372875,5.681,5.298,55.0,13.69,50.46
-0.007,0.36,5.68,5.296,55.0,13.69,50.55
0.077,0.12175,5.678,5.293,55.0,13.69,50.61
0.242,0.1165,5.675,5.29,55.0,13.69,50.69
0.25,0.29525,5.674,5.288,55.0,13.69,50.79
-0.065,0.372875,5.671,5.286,55.0,13.69,50.85
-0.091,0.328875,5.67,5.283,59.0,13.69,50.91
-0.089,0.199375,5.668,5.281,59.0,13.69,50.95
-0.097,0.334125,5.665,5.279,59.0,13.69,50.92
-0.102,0.199375,5.664,5.275,59.0,13.69,50.91
-0.1,0.3315,5.661,5.273,59.0,13.69,50.92
-0.096,0.271875,5.66,5.27,59.0,13.69,50.93
-0.05,0.271875,5.658,5.269,59.0,13.69,50.91
-0.108,0.119125,5.657,5.266,59.0,13.69,50.85
-0.04,0.271875,5.654,5.264,59.0,13.69,50.79
0.231,0.3185,5.653,5.261,59.0,13.69,50.76
-0.016,0.313375,5.651,5.259,59.0,13.69,50.75
0.062,0.025875,5.648,5.258,59.0,13.69,50.73
0.22,0.22525,5.647,5.254,59.0,13.69,50.7
0.262,0.313375,5.644,5.253,59.0,13.69,50.68
-0.064,0.406625,5.643,5.25,59.0,13.69,50.61
-0.106,0.313375,5.641,5.248,62.0,13.69,50.54
-0.098,0.2745,5.638,5.245,62.0,13.67,50.44
-0.105,0.16575,5.637,5.243,62.0,13.67,50.31
-0.113,0.1165,5.636,5.24,62.0,13.67,50.2
-0.115,0.196875,5.633,5.238,62.0,13.67,50.11
-0.115,0.199375,5.632,5.235,62.0,13.67,50.07
-0.112,0.29525,5.629,5.233,62.0,13.67,50.02
-0.061,0.271875,5.628,5.23,62.0,13.67,49.94
-0.113,0.32375,5.626,5.229,62.0,13.67,49.82
-0.113,0.406625,5.624,5.226,62.0,13.67,49.76
0.279,0.2875,5.623,5.224,62.0,13.69,49.71
-0.029,0.29525,5.623,5.221,62.0,13.67,49.67
0.041,0.160625,5.623,5.219,62.0,13.67,49.63
0.189,0.018125,5.621,5.218,62.0,13.67,49.58
0.302,0.31075,5.621,5.215,62.0,13.67,49.52
-0.033,0.4195,5.618,5.214,62.0,13.67,49.45
-0.111,0.2745,5.617,5.212,57.0,13.67,49.38
-0.101,0.36,5.616,5.209,57.0,13.67,49.27
-0.105,0.22525,5.613,5.208,57.0,13.67,49.11
-0.115,0.35475,5.613,5.206,57.0,13.67,48.99
-0.114,0.196875,5.611,5.203,57.0,13.67,48.92
-0.112,0.160625,5.608,5.201,57.0,13.67,48.86
-0.11,0.168375,5.608,5.199,57.0,13.67,48.84
-0.096,0.401375,5.606,5.197,57.0,13.67,48.77
-0.055,0.334125,5.603,5.194,57.0,13.67,48.69
-0.113,0.277125,5.603,5.193,57.0,13.67,48.64
0.093,0.271875,5.602,5.189,57.0,13.67,48.63
0.106,0.25375,5.601,5.188,57.0,13.67,48.59
-0.009,0.349625,5.598,5.186,57.0,13.67,48.57
0.078,0.160625,5.598,5.183,57.0,13.67,48.54
0.255,0.277125,5.596,5.182,57.0,13.67,48.52
0.248,0.328875,5.593,5.179,57.0,13.67,48.49
-0.072,0.313375,5.592,5.178,57.0,13.67,48.48
-0.102,0.2435,5.591,5.176,55.0,13.67,48.45
-0.096,0.38075,5.588,5.173,55.0,13.67,48.39
-0.107,0.22525,5.588,5.171,55.0,13.67,48.3
-0.114,0.362625,5.586,5.168,55.0,13.67,48.26
-0.117,0.29525,5.584,5.166,55.0,13.67,48.26
-0.118,0.357375,5.582,5.163,55.0,13.67,48.26
-0.112,0.277125,5.581,5.162,55.0,13.67,48.3
-0.058,0.111375,5.578,5.159,55.0,13.67,48.28
-0.113,0.038875,5.578,5.158,55.0,13.67,48.26
-0.103,0.321125,5.576,5.156,55.0,13.67,48.29
0.254,0.305625,5.573,5.153,55.0,13.67,48.31
-0.027,0.163125,5.571,5.151,55.0,13.67,48.33
0.045,0.160625,5.568,5.149,55.0,13.67,48.33
0.2,0.114,5.567,5.147,55.0,13.67,48.34
0.308,0.2305,5.566,5.144,55.0,13.67,48.35
-0.033,0.372875,5.564,5.143,55.0,13.67,48.35
-0.102,0.305625,5.562,5.141,57.0,13.67,48.33
-0.094,0.29525,5.561,5.138,57.0,13.67,48.32
-0.1,0.227875,5.559,5.136,57.0,13.67,48.24
-0.109,0.02075,5.556,5.133,57.0,13.67,48.25
-0.108,0.018125,5.555,5.132,57.0,13.67,48.33
-0.106,0.0155,5.552,5.129,57.0,13.67,48.43
-0.101,0.163125,5.551,5.127,57.0,13.67,48.52
-0.051,0.25125,5.549,5.126,57.0,13.67,48.56
-0.106,0.2305,5.547,5.124,57.0,13.67,48.63
-0.084,0.23825,5.546,5.121,57.0,13.67,48.73
0.238,0.313375,5.544,5.12,57.0,13.67,48.86
-0.027,0.199375,5.541,5.117,57.0,13.67,49.0
0.046,0.0155,5.54,5.116,57.0,13.67,49.12
0.202,0.246,5.539,5.114,57.0,13.67,49.24
0.293,0.158,5.536,5.111,57.0,13.67,49.37
-0.043,0.347,5.535,5.11,57.0,13.67,49.46
-0.103,0.385875,5.532,5.107,58.0,13.67,49.55
-0.093,0.3885,5.531,5.105,58.0,13.67,49.64
-0.098,0.29525,5.529,5.104,58.0,13.67,49.67
-0.105,0.25375,5.529,5.101,58.0,13.67,49.75
-0.105,0.385875,5.526,5.099,58.0,13.67,49.84
-0.092,0.19425,5.525,5.096,58.0,13.67,49.98
-0.05,0.1165,5.524,5.095,58.0,13.67,50.11
-0.108,0.22525,5.521,5.092,58.0,13.67,50.19
0.112,0.227875,5.52,5.091,58.0,13.67,50.26
0.081,0.38325,5.519,5.089,58.0,13.67,50.34
-0.007,0.25375,5.516,5.086,58.0,13.67,50.44
0.086,0.1165,5.515,5.085,58.0,13.67,50.55
0.264,0.119125,5.512,5.082,58.0,13.67,50.66
0.235,0.385875,5.511,5.08,58.0,13.67,50.76
-0.069,0.328875,5.51,5.079,58.0,13.67,50.85
-0.087,0.269375,5.507,5.076,63.0,13.67,50.93
-0.084,0.25375,5.506,5.075,63.0,13.67,50.97
-0.09,0.277125,5.504,5.072,63.0,13.67,50.97
-0.093,0.25125,5.502,5.071,63.0,13.67,50.99
-0.078,0.277125,5.501,5.069,63.0,13.67,51.02
-0.039,0.29525,5.499,5.066,63.0,13.67,51.03
-0.101,0.292625,5.497,5.065,63.0,13.67,51.04
0.108,0.246,5.496,5.062,63.0,13.67,50.98
0.112,0.33925,5.495,5.061,63.0,13.67,50.92
0.0,0.2305,5.494,5.059,63.0,13.67,50.9
0.09,0.119125,5.491,5.057,63.0,13.67,50.9
0.263,0.018125,5.49,5.056,63.0,13.67,50.89
0.233,0.362625,5.489,5.054,63.0,13.67,50.86
-0.068,0.362625,5.487,5.051,63.0,13.67,50.8
-0.088,0.32625,5.485,5.051,66.0,13.67,50.74
-0.085,0.32375,5.484,5.049,66.0,13.67,50.64
-0.095,0.2745,5.484,5.046,66.0,13.67,50.5
-0.1,0.292625,5.481,5.045,66.0,13.67,50.38
-0.1,0.271875,5.481,5.044,66.0,13.67,50.3
-0.048,0.160625,5.479,5.041,66.0,13.67,50.25
-0.093,0.25375,5.479,5.04,66.0,13.67,50.17
-0.116,0.313375,5.477,5.039,66.0,13.67,50.04
0.301,0.2305,5.475,5.037,66.0,13.66,49.91
-0.042,0.313375,5.474,5.035,66.0,13.67,49.82
0.03,0.277125,5.474,5.034,66.0,13.67,49.74
0.165,0.25375,5.472,5.032,66.0,13.66,49.69
0.321,0.29525,5.472,5.03,66.0,13.67,49.61
0.013,0.357375,5.47,5.029,66.0,13.67,49.51
-0.107,0.36,5.469,5.027,64.0,13.67,49.39
-0.103,0.3445,5.468,5.025,64.0,13.67,49.29
-0.106,0.29525,5.467,5.024,64.0,13.67,49.12
-0.116,0.269375,5.464,5.024,64.0,13.67,48.98
-0.119,0.365125,5.464,5.023,64.0,13.67,48.9
-0.117,0.160625,5.462,5.022,64.0,13.67,48.83
-0.111,0.19425,5.462,5.022,64.0,13.67,48.8
-0.056,0.29,5.462,5.022,64.0,13.67,48.73
-0.106,0.3885,5.462,5.022,64.0,13.67,48.63
-0.114,0.398875,5.462,5.02,64.0,13.67,48.58
0.288,0.259,5.462,5.022,64.0,13.67,48.54
-0.02,0.196875,5.463,5.02,64.0,13.67,48.52
0.043,0.163125,5.464,5.02,64.0,13.67,48.48
0.184,0.0155,5.464,5.022,64.0,13.67,48.46
0.334,0.1165,5.467,5.02,64.0,13.67,48.44
0.017,0.277125,5.467,5.019,64.0,13.67,48.42
-0.087,0.163125,5.469,5.019,58.0,13.67,48.4
-0.081,0.25125,5.469,5.019,58.0,13.67,48.36
-0.084,0.163125,5.472,5.019,58.0,13.67,48.27
-0.096,0.227875,5.473,5.019,58.0,13.67,48.21
-0.099,0.25375,5.474,5.017,58.0,13.67,48.21
-0.097,0.29,5.474,5.017,58.0,13.67,48.21
-0.094,0.168375,5.475,5.017,58.0,13.67,48.24
-0.084,0.2745,5.477,5.014,58.0,13.67,48.24
-0.039,0.227875,5.477,5.014,58.0,13.67,48.22
-0.098,0.227875,5.478,5.012,58.0,13.67,48.25
-0.027,0.220125,5.479,5.012,58.0,13.67,48.28
0.228,0.308125,5.479,5.009,58.0,13.67,48.3
-0.009,0.3755,5.479,5.008,58.0,13.67,48.31
0.068,0.32625,5.479,5.007,58.0,13.67,48.31
0.226,0.018125,5.479,5.004,58.0,13.67,48.32
0.294,0.220125,5.478,5.003,58.0,13.67,48.32
-0.041,0.196875,5.477,5.0,58.0,13.67,48.32
-0.091,0.02325,5.477,4.999,55.0,13.67,48.32
-0.086,0.29525,5.477,4.997,55.0,13.67,48.32
-0.094,0.160625,5.474,4.994,55.0,13.67,48.29
-0.103,0.31075,5.474,4.993,55.0,13.67,48.35
-0.103,0.196875,5.472,4.99,55.0,13.67,48.45
-0.101,0.199375,5.47,4.988,55.0,13.67,48.57
-0.099,0.2305,5.469,4.985,55.0,13.67,48.71
-0.052,0.25375,5.467,4.983,55.0,13.67,48.79
-0.081,0.2745,5.464,4.982,55.0,13.67,48.91
-0.101,0.248625,5.463,4.979,55.0,13.67,49.06
0.314,0.35475,5.462,4.978,55.0,13.67,49.23
-0.064,0.349625,5.459,4.975,55.0,13.67,49.38
0.039,0.316,5.458,4.973,55.0,13.67,49.52
0.16,0.370375,5.454,4.972,55.0,13.67,49.65
0.344,0.2745,5.454,4.969,55.0,13.67,49.77
0.107,0.38325,5.45,4.967,55.0,13.67,49.87
-0.063,0.3315,5.449,4.964,56.0,13.67,49.97
-0.059,0.316,5.448,4.963,56.0,13.67,50.05
-0.059,0.2305,5.445,4.96,56.0,13.67,50.1
-0.066,0.29525,5.443,4.959,56.0,13.67,50.15
-0.064,0.313375,5.44,4.957,56.0,13.67,50.26
-0.064,0.277125,5.438,4.954,56.0,13.67,50.37
-0.031,0.202,5.435,4.953,56.0,13.67,50.5
-0.033,0.271875,5.433,4.951,56.0,13.67,50.57
-0.071,0.29,5.432,4.95,56.0,13.67,50.58
0.371,0.271875,5.429,4.947,56.0,13.67,50.62
-0.074,0.328875,5.427,4.946,56.0,13.67,50.72
0.054,0.196875,5.424,4.945,56.0,13.67,50.83
0.165,0.256375,5.423,4.942,56.0,13.67,50.91
0.348,0.02075,5.42,4.941,56.0,13.67,50.98
0.164,0.32375,5.419,4.938,56.0,13.67,51.01
-0.044,0.277125,5.417,4.937,61.0,13.67,51.03
-0.045,0.196875,5.414,4.935,61.0,13.67,51.04
-0.049,0.29525,5.413,4.932,61.0,13.67,50.99
-0.059,0.199375,5.41,4.931,61.0,13.67,50.91
-0.061,0.1165,5.408,4.93,61.0,13.67,50.86
-0.062,0.2745,5.407,4.927,61.0,13.67,50.84
-0.019,0.349625,5.404,4.926,61.0,13.67,50.82
-0.056,0.25375,5.402,4.923,61.0,13.67,50.8
-0.08,0.284875,5.4,4.922,61.0,13.67,50.68
0.338,0.246,5.398,4.921,61.0,13.67,50.6
-0.027,0.385875,5.397,4.92,61.0,13.67,50.57
0.058,0.313375,5.394,4.917,61.0,13.67,50.53
0.18,0.199375,5.392,4.915,61.0,13.66,50.5
0.342,0.303,5.391,4.913,61.0,13.66,50.46
0.059,0.33925,5.39,4.912,61.0,13.66,50.4
-0.08,0.1165,5.387,4.91,63.0,13.67,50.33
-0.077,0.163125,5.385,4.908,63.0,13.66,50.24
-0.081,0.196875,5.383,4.907,63.0,13.67,50.08
-0.094,0.31075,5.382,4.905,63.0,13.67,49.95
-0.099,0.328875,5.38,4.903,63.0,13.66,49.83
-0.099,0.308125,5.377,4.901,63.0,13.67,49.73
-0.073,0.22525,5.377,4.9,63.0,13.67,49.67
-0.071,0.277125,5.375,4.898,63.0,13.67,49.56
-0.117,0.292625,5.373,4.896,63.0,13.66,49.44
0.348,0.264125,5.372,4.895,63.0,13.67,49.35
-0.127,0.3445,5.37,4.893,63.0,13.67,49.3
0.0,0.025875,5.367,4.891,63.0,13.66,49.25
0.107,0.29525,5.367,4.89,63.0,13.67,49.21
0.291,0.22275,5.365,4.888,63.0,13.67,49.14
0.128,0.39625,5.362,4.887,63.0,13.66,49.07
-0.104,0.29,5.362,4.885,60.0,13.66,48.98
-0.107,0.196875,5.36,4.883,60.0,13.66,48.91
-0.103,0.277125,5.357,4.882,60.0,13.67,48.76
-0.113,0.3315,5.357,4.88,60.0,13.67,48.61
-0.116,0.303,5.355,4.878,60.0,13.67,48.54
-0.113,0.196875,5.352,4.875,60.0,13.67,48.48
-0.11,0.02325,5.351,4.875,60.0,13.67,48.48
-0.096,0.02075,5.35,4.872,60.0,13.67,48.46
-0.051,0.189,5.348,4.871,60.0,13.67,48.41
-0.109,0.256375,5.347,4.87,60.0,13.67,48.4
0.056,0.271875,5.345,4.867,60.0,13.67,48.41
0.14,0.328875,5.343,4.867,60.0,13.67,48.41
-0.007,0.2745,5.342,4.865,60.0,13.67,48.42
0.077,0.32625,5.34,4.863,60.0,13.67,48.41
0.242,0.25375,5.34,4.862,60.0,13.67,48.42
0.268,0.248625,5.337,4.86,60.0,13.67,48.42
-0.058,0.385875,5.336,4.86,60.0,13.67,48.41
-0.092,0.163125,5.335,4.858,56.0,13.67,48.4
-0.084,0.196875,5.332,4.856,56.0,13.67,48.36
-0.095,0.163125,5.332,4.855,56.0,13.67,48.28
-0.102,0.25125,5.33,4.853,56.0,13.67,48.26
-0.104,0.3315,5.328,4.851,56.0,13.67,48.26
-0.103,0.163125,5.327,4.85,56.0,13.67,48.28
-0.1,0.22525,5.325,4.848,56.0,13.67,48.33
-0.053,0.199375,5.323,4.848,56.0,13.67,48.35
-0.078,0.3445,5.322,4.845,56.0,13.66,48.4
-0.101,0.168375,5.32,4.844,56.0,13.66,48.51
0.306,0.22275,5.32,4.843,56.0,13.67,48.65
-0.055,0.349625,5.317,4.841,56.0,13.67,48.79
0.041,0.328875,5.315,4.839,56.0,13.66,48.91
0.161,0.02325,5.315,4.838,56.0,13.67,49.05
0.339,0.114,5.312,4.835,56.0,13.67,49.17
0.101,0.370375,5.311,4.834,56.0,13.67,49.28
-0.065,0.38325,5.31,4.833,56.0,13.67,49.4
-0.057,0.32625,5.308,4.831,56.0,13.66,49.53
-0.057,0.25125,5.307,4.83,56.0,13.67,49.57
-0.064,0.256375,5.305,4.828,56.0,13.66,49.64
-0.065,0.199375,5.304,4.825,56.0,13.66,49.76
-0.064,0.160625,5.303,4.825,56.0,13.66,49.9
-0.046,0.3445,5.3,4.823,56.0,13.67,50.05
-0.028,0.316,5.3,4.821,56.0,13.66,50.16
-0.075,0.25125,5.298,4.82,56.0,13.66,50.22
0.351,0.220125,5.296,4.818,56.0,13.66,50.32
-0.078,0.328875,5.295,4.816,56.0,13.67,50.45
0.04,0.199375,5.293,4.815,56.0,13.66,50.59
0.141,0.1165,5.29,4.813,56.0,13.66,50.68
0.322,0.163125,5.29,4.813,56.0,13.67,50.77
0.204,0.370375,5.288,4.81,56.0,13.66,50.85
-0.046,0.357375,5.286,4.81,60.0,13.66,50.9
-0.053,0.2745,5.285,4.808,60.0,13.66,50.95
-0.054,0.25375,5.283,4.806,60.0,13.66,50.96
-0.066,0.31075,5.281,4.805,60.0,13.66,50.94
-0.069,0.25375,5.28,4.803,60.0,13.66,50.95
-0.067,0.277125,5.279,4.8,60.0,13.66,50.95
-0.019,0.341875,5.278,4.8,60.0,13.66,50.96
-0.075,0.316,5.275,4.798,60.0,13.66,50.97
-0.065,0.25125,5.274,4.796,60.0,13.66,50.89
0.291,0.269375,5.273,4.795,60.0,13.66,50.84
-0.001,0.27975,5.27,4.793,60.0,13.67,50.82
0.069,0.227875,5.27,4.791,60.0,13.7,50.82
0.214,0.328875,5.268,4.79,60.0,13.7,50.81
0.309,0.336625,5.266,4.79,60.0,13.7,50.79
-0.013,0.36775,5.265,4.788,60.0,13.7,50.73
-0.078,0.160625,5.264,4.786,64.0,13.71,50.66
-0.072,0.158,5.263,4.785,64.0,13.71,50.57
-0.083,0.3445,5.26,4.783,64.0,13.7,50.43
-0.09,0.36775,5.259,4.781,64.0,13.67,50.3
-0.092,0.199375,5.258,4.78,64.0,13.66,50.22
-0.075,0.1165,5.255,4.779,64.0,13.66,50.16
-0.047,0.227875,5.255,4.776,64.0,13.66,50.12
-0.104,0.357375,5.253,4.775,64.0,13.67,50.0
0.246,0.26675,5.25,4.775,64.0,13.67,49.88
-0.014,0.3885,5.249,4.773,64.0,13.67,49.79
0.0,0.277125,5.248,4.772,64.0,13.66,49.74
0.097,0.189,5.245,4.771,64.0,13.67,49.67
0.276,0.018125,5.244,4.769,64.0,13.66,49.63
0.211,0.292625,5.243,4.768,64.0,13.67,49.58
-0.078,0.362625,5.24,4.766,63.0,13.66,49.5
-0.09,0.41175,5.24,4.766,63.0,13.66,49.4
-0.086,0.36,5.238,4.763,63.0,13.66,49.27
-0.099,0.25375,5.236,4.762,63.0,13.67,49.13
-0.106,0.227875,5.235,4.761,63.0,13.67,49.06
-0.108,0.1165,5.233,4.758,63.0,13.69,48.99
-0.108,0.292625,5.233,4.758,63.0,13.69,48.94
-0.057,0.196875,5.23,4.756,63.0,13.69,48.9
-0.101,0.292625,5.229,4.754,63.0,13.69,48.82
-0.116,0.271875,5.228,4.753,63.0,13.69,48.76
0.281,0.284875,5.225,4.752,63.0,13.69,48.74
-0.037,0.393625,5.224,4.751,63.0,13.7,48.71
0.028,0.199375,5.223,4.749,63.0,13.71,48.69
0.157,0.02075,5.221,4.748,63.0,13.71,48.65
0.316,0.114,5.22,4.747,63.0,13.7,48.63
0.026,0.308125,5.218,4.746,63.0,13.7,48.6
-0.104,0.227875,5.218,4.744,60.0,13.69,48.57
-0.099,0.313375,5.215,4.743,60.0,13.67,48.52
-0.103,0.02325,5.215,4.742,60.0,13.67,48.41
-0.114,0.163125,5.213,4.741,60.0,13.67,48.34
-0.115,0.202,5.212,4.741,60.0,13.67,48.32
-0.115,0.163125,5.211,4.741,60.0,13.67,48.32
-0.113,0.018125,5.208,4.738,60.0,13.66,48.34
-0.06,0.29,5.208,4.738,60.0,13.66,48.34
-0.105,0.39625,5.208,4.738,60.0,13.66,48.33
-0.121,0.385875,5.206,4.738,60.0,13.66,48.35
0.273,0.271875,5.204,4.736,60.0,13.66,48.44
-0.037,0.370375,5.203,4.736,60.0,13.66,48.57
0.03,0.227875,5.203,4.734,60.0,13.66,48.69
0.16,0.119125,5.202,4.733,60.0,13.66,48.82
0.322,0.018125,5.201,4.733,60.0,13.66,48.97
0.03,0.362625,5.201,4.733,60.0,13.66,49.09
-0.092,0.22525,5.198,4.732,58.0,13.65,49.19
-0.084,0.1165,5.198,4.731,58.0,13.65,49.32
-0.088,0.2305,5.198,4.729,58.0,13.66,49.36
-0.098,0.31075,5.196,4.728,58.0,13.66,49.45
-0.097,0.406625,5.194,4.728,58.0,13.66,49.57
-0.095,0.22275,5.193,4.726,58.0,13.65,49.71
-0.05,0.3185,5.193,4.726,58.0,13.65,49.88
-0.077,0.271875,5.192,4.724,58.0,13.65,49.97
-0.102,0.2745,5.191,4.723,58.0,13.65,50.04
0.312,0.277125,5.189,4.722,58.0,13.65,50.14
-0.07,0.199375,5.188,4.721,58.0,13.65,50.28
0.032,0.328875,5.187,4.719,58.0,13.65,50.39
0.15,0.22275,5.186,4.717,58.0,13.65,50.51
0.328,0.2305,5.184,4.716,58.0,13.65,50.62
0.085,0.370375,5.183,4.714,58.0,13.65,50.69
-0.08,0.372875,5.182,4.713,61.0,13.65,50.78
-0.079,0.292625,5.181,4.711,61.0,13.65,50.88
-0.083,0.25375,5.178,4.711,61.0,13.64,50.91
-0.094,0.16575,5.178,4.708,61.0,13.65,50.92
-0.095,0.347,5.176,4.707,61.0,13.64,50.97
-0.083,0.31075,5.174,4.704,61.0,13.64,51.01
-0.05,0.2745,5.173,4.703,61.0,13.64,51.05
-0.111,0.271875,5.171,4.702,61.0,13.64,51.02
0.115,0.246,5.171,4.701,61.0,13.64,50.96
0.077,0.22525,5.168,4.698,61.0,13.64,50.93
-0.015,0.227875,5.167,4.698,61.0,13.64,50.93
0.074,0.227875,5.166,4.696,61.0,13.65,50.91
0.24,0.163125,5.163,4.693,61.0,13.65,50.91
0.222,0.313375,5.163,4.693,61.0,13.66,50.88
-0.078,0.196875,5.161,4.691,64.0,13.67,50.83
-0.101,0.114,5.159,4.691,64.0,13.67,50.79
-0.099,0.22525,5.158,4.688,64.0,13.67,50.7
-0.111,0.22525,5.156,4.687,64.0,13.69,50.59
-0.116,0.3755,5.154,4.686,64.0,13.7,50.49
-0.118,0.391,5.153,4.685,64.0,13.71,50.41
-0.112,0.277125,5.151,4.684,64.0,13.71,50.35
-0.07,0.196875,5.149,4.681,64.0,13.72,50.32
-0.133,0.196875,5.148,4.681,64.0,13.72,50.22
-0.025,0.19425,5.146,4.679,64.0,13.72,50.1
0.18,0.4455,5.146,4.677,64.0,13.72,50.04
-0.048,0.341875,5.143,4.676,64.0,13.72,49.99
0.033,0.26675,5.141,4.674,64.0,13.7,49.93
0.188,0.2175,5.141,4.674,61.0,13.7,49.85
0.235,0.32375,5.138,4.671,61.0,13.71,49.76
-0.094,0.39625,5.137,4.67,61.0,13.72,49.64
-0.137,0.31075,5.136,4.669,61.0,13.72,49.55
-0.129,0.25375,5.134,4.667,61.0,13.69,49.41
-0.142,0.277125,5.133,4.666,61.0,13.66,49.22
-0.149,0.1165,5.131,4.665,61.0,13.66,49.1
-0.151,0.1165,5.131,4.662,61.0,13.66,49.02
-0.151,0.297875,5.128,4.661,61.0,13.66,48.97
-0.151,0.227875,5.127,4.661,61.0,13.66,48.94
-0.11,0.3445,5.126,4.659,61.0,13.67,48.84
-0.129,0.466125,5.125,4.657,61.0,13.67,48.75
-0.16,0.313375,5.124,4.656,61.0,13.67,48.71
0.283,0.3185,5.121,4.656,61.0,13.66,48.69
-0.138,0.316,5.12,4.654,61.0,13.67,48.65
-0.026,0.25375,5.119,4.652,61.0,13.67,48.59
0.085,0.114,5.116,4.651,56.0,13.66,48.56
0.266,0.191625,5.116,4.65,56.0,13.66,48.54
0.068,0.3445,5.114,4.649,56.0,13.66,48.52
-0.139,0.277125,5.112,4.647,56.0,13.65,48.48
-0.137,0.227875,5.111,4.646,56.0,13.65,48.45
-0.138,0.277125,5.109,4.645,56.0,13.64,48.36
-0.152,0.31075,5.107,4.644,56.0,13.64,48.29
-0.155,0.163125,5.106,4.641,56.0,13.63,48.27
-0.156,0.25375,5.104,4.641,56.0,13.63,48.28
-0.155,0.321125,5.102,4.639,56.0,13.63,48.31
-0.149,0.235625,5.101,4.639,56.0,13.63,48.32
-0.097,0.163125,5.101,4.636,56.0,13.63,48.3
-0.154,0.25375,5.099,4.635,56.0,13.61,48.31
-0.115,0.248625,5.099,4.634,56.0,13.6,48.34
0.198,0.341875,5.096,4.632,56.0,13.6,48.35
-0.065,0.316,5.095,4.631,56.0,13.6,48.37
0.013,0.1165,5.094,4.63,56.0,13.6,48.39
0.16,0.02325,5.092,4.629,55.0,13.6,48.41
0.258,0.196875,5.091,4.627,55.0,13.6,48.43
-0.073,0.308125,5.089,4.626,55.0,13.61,48.5
-0.137,0.269375,5.087,4.624,55.0,13.61,48.6
-0.127,0.163125,5.086,4.624,55.0,13.63,48.69
-0.133,0.227875,5.085,4.622,55.0,13.61,48.75
-0.136,0.22525,5.084,4.621,55.0,13.61,48.83
-0.133,0.191625,5.081,4.619,55.0,13.6,48.99
-0.129,0.25375,5.08,4.617,55.0,13.61,49.15
-0.107,0.29525,5.079,4.616,55.0,13.6,49.32
-0.077,0.328875,5.076,4.616,55.0,13.61,49.41
-0.127,0.16575,5.076,4.614,55.0,13.6,49.52
0.252,0.246,5.074,4.614,55.0,13.61,49.66
-0.077,0.31075,5.072,4.611,55.0,13.6,49.83
-0.008,0.297875,5.071,4.61,55.0,13.6,49.97
0.09,0.16575,5.07,4.609,55.0,13.6,50.09
0.27,0.189,5.069,4.609,55.0,13.6,50.21
0.211,0.38075,5.066,4.606,55.0,13.6,50.32
-0.072,0.36,5.066,4.605,55.0,13.6,50.45
-0.087,0.271875,5.064,4.604,59.0,13.6,50.59
-0.087,0.160625,5.064,4.602,59.0,13.6,50.66
-0.095,0.271875,5.061,4.601,59.0,13.6,50.72
-0.098,0.3315,5.06,4.6,59.0,13.6,50.8
-0.093,0.347,5.059,4.599,59.0,13.6,50.89
-0.046,0.155375,5.057,4.598,59.0,13.6,51.0
-0.11,0.2305,5.056,4.597,59.0,13.6,51.05
-0.004,0.334125,5.055,4.595,59.0,13.6,51.01
0.185,0.32625,5.054,4.594,59.0,13.6,51.01
-0.018,0.357375,5.051,4.592,59.0,13.6,51.04
0.063,0.313375,5.051,4.592,59.0,13.6,51.07
0.219,0.163125,5.049,4.59,59.0,13.6,51.1
0.263,0.160625,5.049,4.589,59.0,13.6,51.13
-0.058,0.25125,5.046,4.587,59.0,13.6,51.14
-0.098,0.2745,5.045,4.587,65.0,13.6,51.14
-0.095,0.31075,5.044,4.584,65.0,13.6,51.11
-0.106,0.2305,5.042,4.584,65.0,13.6,51.05
-0.112,0.227875,5.041,4.583,65.0,13.6,50.99
-0.107,0.277125,5.04,4.582,65.0,13.6,50.97
-0.047,0.220125,5.039,4.582,65.0,13.6,50.96
-0.116,0.313375,5.037,4.579,65.0,13.6,50.95
-0.068,0.2875,5.035,4.577,65.0,13.6,50.88
0.223,0.271875,5.034,4.577,65.0,13.6,50.8
-0.044,0.199375,5.033,4.574,65.0,13.6,50.75
0.033,0.02325,5.032,4.574,65.0,13.6,50.71
0.182,0.02075,5.03,4.573,65.0,13.6,50.66
0.245,0.29,5.029,4.572,65.0,13.6,50.61
-0.079,0.3755,5.028,4.57,65.0,13.6,50.54
-0.132,0.347,5.025,4.569,65.0,13.6,50.45
-0.126,0.196875,5.024,4.567,65.0,13.6,50.33
-0.138,0.3445,5.024,4.567,65.0,13.6,50.15
-0.149,0.362625,5.022,4.567,65.0,13.6,50.0
-0.136,0.31075,5.019,4.564,65.0,13.59,49.88
-0.119,0.31075,5.019,4.563,65.0,13.6,49.78
-0.098,0.3315,5.018,4.562,65.0,13.6,49.69
-0.165,0.22525,5.017,4.56,65.0,13.6,49.56
0.175,0.256375,5.014,4.559,65.0,13.6,49.44
-0.069,0.362625,5.013,4.557,65.0,13.6,49.28
-0.062,0.372875,5.013,4.558,65.0,13.6,49.28
0.033,0.02075,5.012,4.555,63.0,13.6,49.21
0.212,0.018125,5.009,4.554,63.0,13.6,49.13
0.166,0.25125,5.009,4.554,63.0,13.6,49.05
-0.123,0.347,5.008,4.552,63.0,13.6,48.96
-0.138,0.2745,5.007,4.55,63.0,13.6,48.89
-0.131,0.347,5.004,4.549,63.0,13.6,48.78
-0.143,0.19425,5.004,4.549,63.0,13.59,48.62
-0.148,0.03625,5.002,4.547,63.0,13.59,48.56
-0.146,0.334125,5.0,4.547,63.0,13.59,48.53
-0.145,0.25375,4.999,4.544,63.0,13.6,48.51
-0.135,0.36,4.999,4.544,63.0,13.6,48.51
-0.083,0.2745,4.997,4.542,63.0,13.6,48.47
-0.14,0.25125,4.995,4.542,63.0,13.6,48.44
-0.03,0.303,4.994,4.539,63.0,13.6,48.46
0.162,0.33925,4.993,4.539,63.0,13.59,48.47
-0.044,0.2875,4.992,4.537,63.0,13.6,48.47
0.038,0.227875,4.99,4.537,63.0,13.6,48.47
0.197,0.163125,4.989,4.534,63.0,13.6,48.47
0.261,0.220125,4.988,4.534,63.0,13.6,48.47
-0.064,0.308125,4.987,4.532,63.0,13.6,48.46
-0.111,0.29525,4.987,4.532,57.0,13.6,48.44
-0.105,0.277125,4.984,4.53,57.0,13.59,48.4
-0.117,0.227875,4.983,4.529,57.0,13.6,48.32
-0.126,0.227875,4.982,4.528,57.0,13.59,48.31
-0.128,0.02325,4.98,4.527,57.0,13.6,48.31
-0.127,0.29525,4.979,4.525,57.0,13.59,48.32
-0.123,0.292625,4.977,4.524,57.0,13.59,48.35
-0.071,0.163125,4.977,4.523,57.0,13.59,48.34
-0.112,0.227875,4.975,4.522,57.0,13.6,48.33
-0.128,0.26675,4.974,4.522,57.0,13.59,48.36
0.256,0.25125,4.972,4.519,57.0,13.59,48.39
-0.046,0.16575,4.972,4.519,57.0,13.59,48.4
0.019,0.114,4.969,4.517,57.0,13.59,48.42
0.149,0.313375,4.968,4.515,57.0,13.59,48.48
0.306,0.313375,4.967,4.514,57.0,13.59,48.57
0.029,0.372875,4.965,4.513,57.0,13.59,48.67
-0.097,0.32625,4.964,4.512,56.0,13.59,48.77
-0.088,0.27975,4.962,4.512,56.0,13.59,48.87
-0.089,0.2305,4.962,4.509,56.0,13.59,48.91
-0.095,0.163125,4.962,4.509,56.0,13.59,48.99
-0.092,0.347,4.959,4.507,56.0,13.59,49.11
-0.084,0.378125,4.957,4.507,56.0,13.59,49.26
-0.037,0.170875,4.957,4.506,56.0,13.59,49.41
-0.05,0.313375,4.955,4.505,56.0,13.6,49.5
-0.071,0.2175,4.954,4.503,56.0,13.6,49.59
0.345,0.227875,4.952,4.502,56.0,13.59,49.72
-0.03,0.271875,4.952,4.501,56.0,13.6,49.87
0.08,0.160625,4.951,4.5,56.0,13.6,50.03
0.2,0.2875,4.95,4.497,56.0,13.6,50.17
0.377,0.204625,4.947,4.497,56.0,13.6,50.33
0.158,0.41175,4.947,4.496,56.0,13.6,50.46
-0.013,0.29,4.946,4.495,56.0,13.6,50.57
-0.011,0.199375,4.945,4.495,56.0,13.6,50.7
-0.016,0.018125,4.942,4.492,56.0,13.6,50.76
-0.024,0.277125,4.942,4.492,56.0,13.6,50.82
-0.018,0.271875,4.94,4.49,61.0,13.6,50.89
0.033,0.196875,4.94,4.49,61.0,13.6,50.99
-0.022,0.25375,4.937,4.487,61.0,13.6,51.09
-0.037,0.269375,4.937,4.487,61.0,13.6,51.15
0.345,0.292625,4.935,4.486,61.0,13.6,51.16
0.045,0.308125,4.933,4.485,61.0,13.6,51.2
0.123,0.1165,4.932,4.482,61.0,13.6,51.27
0.268,0.256375,4.931,4.482,61.0,13.6,51.35
0.399,0.160625,4.93,4.481,61.0,13.6,51.41
0.089,0.277125,4.927,4.48,61.0,13.6,51.44
0.006,0.227875,4.927,4.48,61.0,13.6,51.47
0.007,0.22275,4.926,4.477,61.0,13.6,51.5
-0.003,0.227875,4.923,4.477,61.0,13.6,51.47
-0.009,0.316,4.922,4.475,67.0,13.6,51.45
0.002,0.196875,4.922,4.475,67.0,13.6,51.45
0.049,0.36,4.92,4.473,67.0,13.6,51.46
-0.022,0.114,4.92,4.472,67.0,13.6,51.47
0.206,0.2875,4.917,4.472,67.0,13.6,51.41
0.169,0.25375,4.917,4.47,67.0,13.6,51.35
0.07,0.227875,4.915,4.47,67.0,13.6,51.34
0.161,0.25125,4.915,4.468,67.0,13.6,51.34
0.326,0.02075,4.912,4.467,67.0,13.6,51.34
0.308,0.33925,4.912,4.467,67.0,13.6,51.32
0.004,0.372875,4.91,4.465,67.0,13.6,51.28
-0.018,0.297875,4.91,4.463,68.0,13.6,51.24
-0.022,0.3315,4.907,4.462,68.0,13.6,51.19
-0.034,0.220125,4.907,4.462,68.0,13.6,51.06
-0.041,0.018125,4.905,4.46,68.0,13.6,50.98
-0.042,0.277125,4.905,4.458,68.0,13.6,50.91
-0.035,0.31075,4.902,4.457,68.0,13.6,50.88
0.005,0.406625,4.901,4.457,68.0,13.6,50.84
-0.061,0.349625,4.9,4.455,68.0,13.6,50.73
0.129,0.292625,4.9,4.455,68.0,13.6,50.65
0.179,0.3445,4.897,4.452,68.0,13.6,50.59
0.031,0.29525,4.895,4.452,68.0,13.6,50.57
0.115,0.1165,4.895,4.451,68.0,13.6,50.52
0.278,0.163125,4.893,4.45,68.0,13.6,50.48
0.292,0.357375,4.892,4.45,68.0,13.6,50.44
-0.027,0.435125,4.89,4.447,68.0,13.6,50.38
-0.059,0.2745,4.89,4.446,61.0,13.6,50.3
-0.055,0.248625,4.888,4.445,61.0,13.6,50.18
-0.072,0.277125,4.887,4.445,61.0,13.6,50.02
-0.082,0.277125,4.885,4.443,61.0,13.6,49.91
-0.084,0.2745,4.885,4.442,61.0,13.6,49.82
-0.086,0.277125,4.882,4.442,61.0,13.6,49.77
-0.09,0.202,4.882,4.44,61.0,13.6,49.73
-0.077,0.227875,4.88,4.44,61.0,13.6,49.64
-0.041,0.25125,4.88,4.437,61.0,13.6,49.54
-0.099,0.313375,4.877,4.437,61.0,13.6,49.5
0.024,0.2745,4.877,4.435,61.0,13.6,49.47
0.209,0.36,4.875,4.435,61.0,13.6,49.44
-0.007,0.31075,4.875,4.433,61.0,13.6,49.39
0.071,0.233125,4.872,4.432,61.0,13.6,49.35
0.225,0.02075,4.871,4.431,61.0,13.6,49.3
0.28,0.111375,4.87,4.43,61.0,13.6,49.25
-0.051,0.357375,4.87,4.43,61.0,13.6,49.18
-0.102,0.409125,4.868,4.427,54.0,13.6,49.11
-0.096,0.347,4.867,4.427,54.0,13.6,49.0
-0.11,0.25125,4.865,4.427,54.0,13.6,48.85
-0.117,0.29525,4.865,4.425,54.0,13.6,48.77
-0.119,0.2305,4.862,4.425,54.0,13.6,48.72
-0.118,0.29,4.861,4.423,54.0,13.6,48.69
-0.115,0.02325,4.86,4.422,54.0,13.6,48.67
-0.111,0.406625,4.86,4.42,54.0,13.6,48.61
-0.079,0.235625,4.859,4.42,54.0,13.6,48.55
-0.07,0.313375,4.858,4.418,54.0,13.6,48.54
-0.111,0.271875,4.856,4.418,54.0,13.6,48.54
0.344,0.269375,4.855,4.416,54.0,13.6,48.53
-0.115,0.316,4.854,4.415,54.0,13.6,48.52
0.01,0.25125,4.853,4.415,54.0,13.6,48.51
0.113,0.19425,4.851,4.413,54.0,13.6,48.51
0.292,0.02075,4.85,4.413,54.0,13.6,48.51
0.19,0.35475,4.849,4.411,54.0,13.6,48.49
-0.074,0.29,4.848,4.41,52.0,13.6,48.48
-0.083,0.22525,4.846,4.41,52.0,13.6,48.47
-0.082,0.16575,4.845,4.409,52.0,13.6,48.4
-0.095,0.391,4.845,4.408,52.0,13.6,48.33
-0.101,0.163125,4.843,4.406,52.0,13.6,48.32
-0.103,0.25125,4.843,4.405,52.0,13.6,48.32
-0.102,0.31075,4.84,4.404,52.0,13.6,48.34
-0.097,0.292625,4.839,4.403,52.0,13.6,48.36
-0.083,0.29525,4.838,4.403,52.0,13.6,48.35
-0.036,0.160625,4.838,4.401,52.0,13.6,48.35
-0.091,0.119125,4.835,4.4,52.0,13.6,48.39
0.086,0.32375,4.834,4.4,52.0,13.6,48.46
0.143,0.321125,4.833,4.398,52.0,13.6,48.55
0.008,0.25125,4.831,4.398,52.0,13.6,48.66
0.097,0.199375,4.83,4.396,52.0,13.6,48.77
0.26,0.199375,4.829,4.395,52.0,13.6,48.9
0.306,0.2875,4.828,4.394,52.0,13.6,49.01
-0.023,0.284875,4.826,4.393,52.0,13.6,49.12
-0.061,0.1165,4.825,4.393,53.0,13.6,49.24
-0.055,0.227875,4.824,4.39,53.0,13.6,49.33
-0.065,0.271875,4.823,4.39,53.0,13.6,49.38
-0.07,0.248625,4.823,4.389,53.0,13.6,49.46
-0.071,0.3755,4.82,4.388,53.0,13.6,49.6
-0.07,0.28225,4.819,4.386,53.0,13.6,49.73
-0.066,0.163125,4.818,4.385,53.0,13.6,49.86
-0.017,0.1165,4.816,4.385,53.0,13.6,49.93
-0.068,0.308125,4.815,4.384,53.0,13.6,50.0
-0.031,0.32375,4.815,4.383,53.0,13.6,50.1
0.267,0.33925,4.813,4.381,53.0,13.6,50.27
0.014,0.38325,4.811,4.38,53.0,13.6,50.41
0.092,0.22525,4.81,4.379,53.0,13.6,50.51
0.24,0.248625,4.81,4.379,53.0,13.6,50.62
0.344,0.02325,4.808,4.378,53.0,13.6,50.72
0.014,0.3885,4.808,4.378,53.0,13.6,50.8
-0.05,0.227875,4.806,4.375,57.0,13.6,50.89
-0.048,0.349625,4.805,4.375,57.0,13.6,50.95
-0.055,0.158,4.803,4.374,57.0,13.6,50.96
-0.061,0.401375,4.803,4.373,57.0,13.6,50.98
-0.061,0.372875,4.803,4.371,57.0,13.6,51.01
-0.057,0.36,4.8,4.37,57.0,13.6,51.06
-0.01,0.292625,4.799,4.369,57.0,13.6,51.12
-0.052,0.271875,4.798,4.368,57.0,13.6,51.09
-0.071,0.246,4.796,4.368,57.0,13.6,51.07
0.324,0.261625,4.795,4.365,57.0,13.6,51.09
0.007,0.2305,4.794,4.365,57.0,13.6,51.12
0.079,0.277125,4.793,4.364,57.0,13.6,51.14
0.212,0.02075,4.793,4.363,57.0,13.6,51.17
0.362,0.261625,4.79,4.363,57.0,13.6,51.18
0.059,0.401375,4.789,4.361,57.0,13.6,51.19
-0.05,0.349625,4.788,4.36,61.0,13.6,51.19
-0.048,0.256375,4.788,4.359,61.0,13.6,51.18
-0.058,0.160625,4.786,4.358,61.0,13.6,51.11
-0.067,0.1165,4.784,4.358,61.0,13.6,51.05
-0.07,0.199375,4.783,4.356,61.0,13.6,51.01
-0.042,0.25125,4.783,4.355,61.0,13.59,50.98
-0.043,0.256375,4.78,4.355,61.0,13.59,50.99
-0.09,0.32625,4.78,4.354,61.0,13.59,50.91
0.365,0.2875,4.778,4.353,61.0,13.59,50.81
-0.1,0.36775,4.778,4.35,61.0,13.59,50.75
0.025,0.25375,4.776,4.35,61.0,13.59,50.73
0.131,0.16575,4.775,4.349,61.0,13.59,50.69
0.31,0.196875,4.773,4.348,61.0,13.59,50.66
0.134,0.372875,4.773,4.348,61.0,13.59,50.6
-0.089,0.36,4.771,4.345,64.0,13.59,50.51
-0.091,0.1165,4.771,4.345,64.0,13.59,50.42
-0.096,0.02075,4.768,4.344,64.0,13.59,50.28
-0.111,0.227875,4.768,4.343,64.0,13.59,50.11
-0.116,0.271875,4.767,4.343,64.0,13.6,49.99
-0.118,0.2875,4.766,4.34,64.0,13.59,49.88
-0.102,0.32625,4.766,4.34,64.0,13.59,49.8
-0.082,0.347,4.763,4.339,64.0,13.59,49.71
-0.137,0.256375,4.763,4.338,64.0,13.59,49.54
0.265,0.26675,4.761,4.336,64.0,13.58,49.42
-0.093,0.328875,4.761,4.335,64.0,13.59,49.33
-0.029,0.1165,4.758,4.335,64.0,13.59,49.24
0.064,0.02075,4.758,4.335,61.0,13.59,49.14
0.243,0.163125,4.757,4.333,61.0,13.6,49.06
0.181,0.305625,4.756,4.333,61.0,13.6,48.98
-0.113,0.437625,4.754,4.331,61.0,13.6,48.88
-0.125,0.347,4.753,4.331,61.0,13.6,48.78
-0.121,0.22525,4.753,4.329,61.0,13.61,48.65
-0.135,0.22275,4.752,4.328,61.0,13.61,48.51
-0.14,0.29525,4.751,4.328,61.0,13.63,48.47
-0.14,0.2875,4.748,4.326,61.0,13.63,48.44
-0.138,0.303,4.748,4.326,61.0,13.63,48.43
-0.127,0.3445,4.748,4.326,61.0,13.63,48.44
-0.081,0.22525,4.746,4.323,61.0,13.63,48.39
-0.139,0.0155,4.746,4.323,61.0,13.63,48.39
0.021,0.25375,4.743,4.322,61.0,13.63,48.4
0.116,0.357375,4.743,4.321,61.0,13.63,48.42
-0.038,0.362625,4.741,4.319,61.0,13.63,48.43
0.046,0.32625,4.741,4.318,57.0,13.61,48.43
0.206,0.1165,4.741,4.318,57.0,13.63,48.43
0.254,0.2745,4.738,4.317,57.0,13.63,48.43
-0.08,0.31075,4.738,4.316,57.0,13.63,48.42
-0.119,0.292625,4.736,4.316,57.0,13.64,48.42
-0.114,0.277125,4.736,4.314,57.0,13.64,48.38
-0.126,0.196875,4.736,4.313,57.0,13.64,48.31
-0.135,0.19425,4.733,4.313,57.0,13.64,48.3
-0.136,0.227875,4.733,4.311,57.0,13.64,48.29
-0.137,0.114,4.731,4.311,57.0,13.64,48.31
-0.134,0.271875,4.731,4.309,57.0,13.64,48.35
-0.112,0.220125,4.728,4.308,57.0,13.63,48.32
-0.088,0.227875,4.728,4.308,57.0,13.63,48.33
-0.139,0.02325,4.727,4.306,57.0,13.63,48.35
0.224,0.25125,4.726,4.306,57.0,13.63,48.38
-0.081,0.357375,4.724,4.306,57.0,13.63,48.46
-0.027,0.292625,4.723,4.303,57.0,13.63,48.57
0.066,0.199375,4.721,4.303,57.0,13.63,48.7
0.24,0.025875,4.721,4.302,57.0,13.63,48.84
0.209,0.2875,4.719,4.301,57.0,13.61,48.98
-0.093,0.357375,4.718,4.301,55.0,13.61,49.11
-0.107,0.328875,4.716,4.298,55.0,13.61,49.23
-0.105,0.328875,4.716,4.298,55.0,13.61,49.3
-0.114,0.160625,4.716,4.297,55.0,13.63,49.34
-0.117,0.300375,4.713,4.296,55.0,13.63,49.44
-0.114,0.196875,4.712,4.296,55.0,13.63,49.55
-0.108,0.256375,4.711,4.293,55.0,13.63,49.69
-0.056,0.35225,4.709,4.293,55.0,13.61,49.8
-0.103,0.16575,4.708,4.293,55.0,13.61,49.86
-0.108,0.385875,4.707,4.291,55.0,13.61,49.95
0.276,0.31075,4.706,4.291,55.0,13.61,50.06
-0.021,0.2745,4.706,4.289,55.0,13.61,50.21
0.049,0.170875,4.704,4.288,55.0,13.61,50.33
0.184,0.1165,4.702,4.288,55.0,13.61,50.45
0.329,0.261625,4.701,4.287,55.0,13.63,50.59
0.011,0.398875,4.701,4.286,55.0,13.63,50.69
-0.09,0.196875,4.698,4.286,60.0,13.63,50.77
-0.087,0.227875,4.698,4.283,60.0,13.63,50.85
-0.093,0.199375,4.697,4.283,60.0,13.63,50.89
-0.099,0.277125,4.696,4.283,60.0,13.63,50.91
-0.098,0.25375,4.694,4.281,60.0,13.63,50.99
-0.08,0.271875,4.693,4.281,60.0,13.63,51.06
-0.054,0.308125,4.692,4.279,60.0,13.63,51.14
-0.108,0.31075,4.691,4.278,60.0,13.63,51.13
0.205,0.25125,4.691,4.278,60.0,13.63,51.13
-0.005,0.292625,4.688,4.276,60.0,13.63,51.17
-0.007,0.313375,4.688,4.276,60.0,13.63,51.23
0.082,0.2745,4.686,4.274,60.0,13.63,51.29
0.256,0.02075,4.686,4.273,60.0,13.63,51.34
0.223,0.26675,4.686,4.273,60.0,13.63,51.38
-0.079,0.271875,4.684,4.272,63.0,13.63,51.39
-0.101,0.16575,4.681,4.271,63.0,13.63,51.41
-0.105,0.25375,4.681,4.271,63.0,13.63,51.39
-0.117,0.292625,4.68,4.271,63.0,13.63,51.34
-0.119,0.25125,4.679,4.268,63.0,13.63,51.31
-0.12,0.227875,4.677,4.268,63.0,13.61,51.3
-0.07,0.114,4.676,4.267,63.0,13.63,51.29
-0.115,0.370375,4.675,4.266,63.0,13.63,51.28
-0.139,0.29,4.674,4.264,63.0,13.63,51.2
0.279,0.2435,4.672,4.263,63.0,13.63,51.13
-0.079,0.12175,4.671,4.263,63.0,13.63,51.12
-0.002,0.111375,4.671,4.262,63.0,13.63,51.11
0.121,0.227875,4.669,4.261,64.0,13.63,51.08
0.285,0.26675,4.667,4.261,64.0,13.63,51.05
0.006,0.35475,4.666,4.258,64.0,13.63,51.01
-0.134,0.297875,4.666,4.258,64.0,13.63,50.94
-0.13,0.277125,4.665,4.258,64.0,13.63,50.86
-0.138,0.32625,4.664,4.256,64.0,13.63,50.71
-0.149,0.316,4.662,4.256,64.0,13.63,50.59
-0.152,0.160625,4.661,4.254,64.0,13.63,50.49
-0.154,0.196875,4.66,4.253,64.0,13.63,50.42
-0.154,0.36,4.659,4.253,64.0,13.63,50.38
-0.108,0.1165,4.659,4.253,64.0,13.63,50.3
-0.151,0.191625,4.656,4.251,64.0,13.61,50.17
-0.171,0.29,4.655,4.251,64.0,13.61,50.09
0.251,0.26675,4.654,4.249,64.0,13.61,50.02
-0.102,0.370375,4.654,4.248,64.0,13.61,49.96
-0.034,0.3885,4.651,4.248,64.0,13.61,49.89
0.081,0.271875,4.651,4.246,58.0,13.61,49.8
0.252,0.018125,4.649,4.246,58.0,13.61,49.71
-0.013,0.3445,4.649,4.246,58.0,13.61,49.61
-0.177,0.32625,4.647,4.244,58.0,13.61,49.51
-0.173,0.3185,4.646,4.244,58.0,13.61,49.4
-0.182,0.02325,4.644,4.244,58.0,13.61,49.22
-0.193,0.19425,4.644,4.241,58.0,13.61,49.09
-0.197,0.32625,4.642,4.241,58.0,13.61,49.01
-0.198,0.2745,4.641,4.239,58.0,13.61,48.93
-0.199,0.196875,4.641,4.239,58.0,13.61,48.91
-0.197,0.25125,4.639,4.239,58.0,13.61,48.84
-0.175,0.16575,4.639,4.237,58.0,13.61,48.74
-0.146,0.199375,4.636,4.236,58.0,13.61,48.69
-0.197,0.227875,4.635,4.236,58.0,13.61,48.64
0.151,0.248625,4.634,4.234,58.0,13.61,48.63
-0.107,0.32625,4.634,4.234,58.0,13.61,48.59
-0.088,0.316,4.632,4.234,58.0,13.61,48.57
0.0,0.277125,4.631,4.231,53.0,13.61,48.54
0.169,0.114,4.629,4.231,53.0,13.61,48.52
0.155,0.303,4.629,4.231,53.0,13.63,48.51
-0.16,0.35475,4.629,4.229,53.0,13.63,48.48
-0.185,0.429875,4.626,4.229,53.0,13.63,48.46
-0.182,0.347,4.625,4.227,53.0,13.63,48.4
-0.195,0.160625,4.624,4.226,53.0,13.63,48.31
-0.199,0.313375,4.624,4.226,53.0,13.63,48.29
-0.199,0.271875,4.622,4.226,53.0,13.63,48.3
-0.198,0.1165,4.621,4.224,53.0,13.63,48.31
-0.195,0.1165,4.619,4.224,53.0,13.63,48.32
-0.183,0.271875,4.619,4.224,53.0,13.63,48.3
-0.134,0.196875,4.617,4.221,53.0,13.63,48.31
-0.19,0.41175,4.616,4.221,53.0,13.63,48.32
-0.034,0.22525,4.615,4.22,53.0,13.63,48.35
0.07,0.33925,4.614,4.219,53.0,13.63,48.37
-0.085,0.31075,4.614,4.219,53.0,13.63,48.37
0.0,0.25375,4.611,4.216,53.0,13.63,48.39
0.155,0.1165,4.61,4.216,53.0,13.63,48.4
0.222,0.22275,4.609,4.216,53.0,13.63,48.4
-0.11,0.372875,4.607,4.214,53.0,13.63,48.4
-0.156,0.321125,4.606,4.214,53.0,13.63,48.4
-0.144,0.22525,4.606,4.214,53.0,13.63,48.39
-0.148,0.25125,4.604,4.211,53.0,13.63,48.37
-0.146,0.163125,4.604,4.211,53.0,13.63,48.44
-0.141,0.22275,4.602,4.21,53.0,13.63,48.54
-0.134,0.292625,4.601,4.209,53.0,13.63,48.66
-0.122,0.227875,4.6,4.209,53.0,13.63,48.79
-0.06,0.31075,4.599,4.209,53.0,13.63,48.88
-0.105,0.347,4.598,4.206,53.0,13.61,48.97
-0.083,0.26675,4.597,4.206,53.0,13.61,49.11
0.254,0.2305,4.597,4.205,53.0,13.61,49.26
-0.008,0.199375,4.594,4.204,53.0,13.61,49.41
0.071,0.16575,4.594,4.204,53.0,13.61,49.51
0.218,0.163125,4.594,4.202,53.0,13.61,49.63
0.349,0.196875,4.592,4.201,53.0,13.61,49.75
0.031,0.347,4.59,4.201,53.0,13.63,49.86
-0.055,0.393625,4.589,4.2,57.0,13.63,49.97
-0.046,0.341875,4.589,4.199,57.0,13.61,50.05
-0.049,0.391,4.589,4.199,57.0,13.61,50.09
-0.047,0.126875,4.588,4.199,57.0,13.61,50.17
-0.044,0.163125,4.587,4.196,57.0,13.61,50.3
-0.015,0.32625,4.585,4.196,57.0,13.61,50.43
-0.001,0.163125,4.584,4.196,57.0,13.61,50.57
-0.044,0.018125,4.582,4.194,57.0,13.61,50.63
0.397,0.189,4.582,4.194,57.0,13.61,50.64
-0.058,0.297875,4.58,4.191,57.0,13.6,50.69
0.07,0.114,4.579,4.191,57.0,13.61,50.77
0.172,0.2745,4.578,4.191,57.0,13.61,50.84
0.352,0.199375,4.577,4.189,57.0,13.61,50.91
0.228,0.341875,4.577,4.189,57.0,13.61,50.95
-0.016,0.284875,4.574,4.189,57.0,13.61,50.96
-0.024,0.196875,4.574,4.186,57.0,13.61,50.98
-0.027,0.292625,4.573,4.186,57.0,13.61,50.96
-0.037,0.32625,4.572,4.186,57.0,13.61,50.92
-0.038,0.297875,4.57,4.184,64.0,13.61,50.9
-0.017,0.334125,4.569,4.184,64.0,13.61,50.9
0.0,0.372875,4.568,4.184,64.0,13.61,50.91
-0.061,0.378125,4.567,4.181,64.0,13.61,50.88
0.382,0.271875,4.567,4.181,64.0,13.61,50.8
-0.075,0.35475,4.565,4.181,64.0,13.61,50.75
0.045,0.0285,4.564,4.18,64.0,13.61,50.73
0.142,0.23825,4.564,4.179,64.0,13.61,50.71
0.317,0.23825,4.562,4.179,64.0,13.61,50.7
0.209,0.3315,4.562,4.177,64.0,13.61,50.65
-0.048,0.347,4.562,4.176,64.0,13.61,50.58
-0.055,0.29525,4.559,4.176,65.0,13.61,50.51
-0.06,0.227875,4.558,4.174,65.0,13.61,50.41
-0.073,0.220125,4.557,4.174,65.0,13.61,50.25
-0.079,0.297875,4.557,4.174,65.0,13.61,50.14
-0.08,0.341875,4.555,4.171,65.0,13.63,50.03
-0.062,0.2745,4.554,4.171,65.0,13.63,49.98
-0.04,0.25125,4.552,4.171,65.0,13.63,49.9
-0.095,0.199375,4.552,4.169,65.0,13.63,49.78
0.297,0.248625,4.55,4.169,65.0,13.63,49.67
-0.043,0.39625,4.549,4.169,65.0,13.63,49.61
0.011,0.308125,4.548,4.167,65.0,13.63,49.56
0.104,0.227875,4.547,4.166,65.0,13.63,49.52
0.279,0.196875,4.547,4.166,65.0,13.63,49.47
0.232,0.308125,4.544,4.165,65.0,13.63,49.39
-0.059,0.32625,4.544,4.164,65.0,13.63,49.31
-0.072,0.25375,4.543,4.164,62.0,13.63,49.21
-0.071,0.227875,4.542,4.162,62.0,13.63,49.08
-0.085,0.199375,4.542,4.161,62.0,13.63,48.91
-0.092,0.163125,4.539,4.161,62.0,13.63,48.83
-0.096,0.018125,4.538,4.16,62.0,13.63,48.77
-0.097,0.308125,4.537,4.159,62.0,13.63,48.74
-0.063,0.02075,4.537,4.159,62.0,13.63,48.7
-0.079,0.347,4.535,4.157,62.0,13.63,48.62
-0.113,0.409125,4.535,4.156,62.0,13.63,48.56
0.328,0.313375,4.534,4.156,62.0,13.63,48.54
-0.115,0.409125,4.532,4.155,62.0,13.63,48.53
0.005,0.29525,4.532,4.154,62.0,13.63,48.52
0.107,0.163125,4.532,4.154,62.0,13.63,48.49
0.287,0.02075,4.529,4.154,62.0,13.63,48.48
0.134,0.39625,4.528,4.152,62.0,13.63,48.48
-0.103,0.398875,4.527,4.152,58.0,13.63,48.45
-0.105,0.227875,4.527,4.152,58.0,13.63,48.43
-0.107,0.29525,4.525,4.15,58.0,13.61,48.36
-0.119,0.0285,4.524,4.149,58.0,13.61,48.29
-0.123,0.227875,4.523,4.149,58.0,13.63,48.27
-0.121,0.02075,4.522,4.148,58.0,13.63,48.27
-0.118,0.160625,4.522,4.147,58.0,13.63,48.31
-0.101,0.22275,4.519,4.147,58.0,13.63,48.31
-0.064,0.269375,4.519,4.147,58.0,13.61,48.3
-0.119,0.341875,4.518,4.144,58.0,13.63,48.3
0.115,0.2875,4.517,4.144,58.0,13.63,48.33
0.06,0.435125,4.517,4.143,58.0,13.63,48.35
-0.012,0.19425,4.514,4.142,58.0,13.63,48.37
0.075,0.018125,4.514,4.142,58.0,13.63,48.37
0.241,0.1165,4.513,4.14,58.0,13.63,48.39
0.269,0.409125,4.512,4.139,58.0,13.63,48.39
-0.054,0.3755,4.512,4.139,58.0,13.63,48.37
-0.084,0.227875,4.51,4.139,57.0,13.63,48.37
-0.078,0.271875,4.509,4.137,57.0,13.63,48.34
-0.087,0.22525,4.507,4.137,57.0,13.61,48.29
-0.089,0.2305,4.507,4.137,57.0,13.63,48.33
-0.083,0.227875,4.506,4.137,57.0,13.63,48.43
-0.076,0.199375,4.505,4.134,57.0,13.63,48.56
-0.032,0.199375,4.503,4.134,57.0,13.63,48.71
-0.039,0.248625,4.502,4.133,57.0,13.63,48.79
-0.066,0.297875,4.502,4.132,57.0,13.61,48.92
0.354,0.277125,4.501,4.132,57.0,13.63,49.07
-0.039,0.183875,4.5,4.132,57.0,13.63,49.23
0.079,0.32625,4.498,4.129,57.0,13.63,49.38
0.197,0.29525,4.497,4.129,57.0,13.61,49.5
0.388,0.16575,4.497,4.129,57.0,13.63,49.62
0.2,0.362625,4.495,4.128,57.0,13.63,49.74
-0.003,0.391,4.495,4.127,57.0,13.63,49.86
0.002,0.191625,4.495,4.127,59.0,13.63,49.96
0.003,0.196875,4.492,4.127,59.0,13.61,50.02
-0.004,0.163125,4.492,4.124,59.0,13.61,50.06
-0.005,0.196875,4.491,4.124,59.0,13.63,50.17
0.007,0.22525,4.49,4.123,59.0,13.63,50.3
0.041,0.292625,4.49,4.123,59.0,13.61,50.44
-0.013,0.31075,4.488,4.122,59.0,13.61,50.53
0.285,0.308125,4.487,4.122,59.0,13.61,50.56
0.093,0.292625,4.487,4.122,59.0,13.61,50.62
0.084,0.163125,4.485,4.119,59.0,13.61,50.72
0.171,0.2305,4.485,4.119,59.0,13.61,50.82
0.34,0.1165,4.483,4.118,59.0,13.61,50.89
0.315,0.3185,4.482,4.117,59.0,13.61,50.98
0.012,0.406625,4.482,4.117,59.0,13.61,51.03
-0.006,0.401375,4.48,4.117,64.0,13.61,51.09
-0.009,0.341875,4.48,4.114,64.0,13.63,51.1
-0.02,0.316,4.478,4.114,64.0,13.61,51.07
-0.024,0.19425,4.477,4.114,64.0,13.63,51.03
-0.012,0.16575,4.476,4.114,64.0,13.61,51.03
0.018,0.29525,4.475,4.112,64.0,13.61,51.03
-0.041,0.313375,4.475,4.112,64.0,13.61,51.02
0.211,0.336625,4.472,4.11,64.0,13.61,50.97
0.121,0.22525,4.472,4.109,64.0,13.6,50.91
0.052,0.163125,4.47,4.109,64.0,13.6,50.91
0.138,0.32375,4.47,4.107,64.0,13.6,50.91
0.303,0.155375,4.47,4.107,64.0,13.6,50.91
0.297,0.32625,4.468,4.107,64.0,13.6,50.9
-0.012,0.2745,4.467,4.105,64.0,13.61,50.88
-0.04,0.25375,4.466,4.107,66.0,13.61,50.82
-0.039,0.2745,4.465,4.104,66.0,13.61,50.73
-0.054,0.22525,4.465,4.104,66.0,13.63,50.59
-0.06,0.256375,4.462,4.103,66.0,13.63,50.47
-0.065,0.2305,4.462,4.102,66.0,13.63,50.38
-0.022,0.227875,4.46,4.102,66.0,13.63,50.33
-0.064,0.328875,4.46,4.102,66.0,13.61,50.27
-0.09,0.2305,4.46,4.099,66.0,13.61,50.13
0.326,0.28225,4.457,4.099,66.0,13.61,50.02
-0.04,0.3185,4.456,4.099,66.0,13.63,49.95
0.04,0.22275,4.455,4.099,66.0,13.63,49.88
0.159,0.32625,4.455,4.097,66.0,13.61,49.79
0.334,0.02075,4.452,4.097,66.0,13.61,49.71
0.081,0.29,4.452,4.097,66.0,13.61,49.6
-0.081,0.31075,4.452,4.097,64.0,13.61,49.48
-0.074,0.2305,4.45,4.094,64.0,13.61,49.36
-0.083,0.163125,4.45,4.094,64.0,13.61,49.18
-0.095,0.271875,4.448,4.093,64.0,13.61,49.01
-0.101,0.248625,4.447,4.092,64.0,13.61,48.94
-0.102,0.199375,4.447,4.092,64.0,13.61,48.86
-0.102,0.1165,4.445,4.092,64.0,13.61,48.82
-0.058,0.29,4.445,4.09,64.0,13.61,48.76
-0.085,0.3885,4.445,4.089,64.0,13.63,48.67
-0.111,0.313375,4.442,4.089,64.0,13.63,48.6
0.332,0.248625,4.441,4.088,64.0,13.63,48.58
-0.091,0.370375,4.44,4.087,64.0,13.63,48.56
0.02,0.297875,4.44,4.087,64.0,13.61,48.53
0.126,0.25375,4.44,4.087,64.0,13.63,48.52
0.309,0.114,4.437,4.085,64.0,13.63,48.51
0.134,0.3755,4.437,4.084,64.0,13.63,48.49
-0.089,0.391,4.435,4.084,57.0,13.63,48.47
-0.089,0.385875,4.435,4.084,57.0,13.63,48.43
-0.092,0.277125,4.435,4.082,57.0,13.63,48.34
-0.104,0.163125,4.432,4.082,57.0,13.63,48.27
-0.105,0.1165,4.432,4.082,57.0,13.63,48.27
-0.107,0.227875,4.43,4.079,57.0,13.63,48.26
-0.106,0.19425,4.43,4.079,57.0,13.63,48.3
-0.1,0.1165,4.428,4.079,57.0,13.63,48.3
-0.045,0.158,4.427,4.079,57.0,13.63,48.28
-0.099,0.29,4.426,4.077,57.0,13.63,48.29
-0.099,0.308125,4.425,4.077,57.0,13.63,48.32
0.273,0.31075,4.425,4.077,57.0,13.61,48.35
-0.019,0.29,4.423,4.075,57.0,13.61,48.35
0.047,0.227875,4.422,4.074,57.0,13.61,48.35
0.179,0.2305,4.421,4.074,57.0,13.63,48.35
0.326,0.114,4.42,4.074,57.0,13.61,48.37
0.011,0.35225,4.42,4.072,57.0,13.61,48.36
-0.095,0.23825,4.418,4.072,55.0,13.61,48.36
-0.088,0.29525,4.418,4.072,55.0,13.61,48.34
-0.099,0.02075,4.418,4.072,55.0,13.61,48.27
-0.11,0.018125,4.415,4.069,55.0,13.63,48.24
-0.113,0.2175,4.414,4.069,55.0,13.61,48.25
-0.114,0.404,4.413,4.069,55.0,13.61,48.28
-0.109,0.3755,4.413,4.068,55.0,13.61,48.31
-0.076,0.1165,4.411,4.067,55.0,13.63,48.32
-0.071,0.163125,4.411,4.067,55.0,13.63,48.35
-0.108,0.147625,4.41,4.067,55.0,13.61,48.45
0.328,0.292625,4.408,4.065,55.0,13.61,48.55
-0.115,0.277125,4.408,4.065,55.0,13.61,48.67
0.011,0.227875,4.408,4.065,55.0,13.63,48.78
0.113,0.160625,4.405,4.063,55.0,13.61,48.9
0.302,0.227875,4.405,4.062,55.0,13.61,49.04
0.179,0.391,4.403,4.062,55.0,13.63,49.16
-0.075,0.349625,4.403,4.062,56.0,13.61,49.27
-0.079,0.248625,4.403,4.06,56.0,13.61,49.39
-0.077,0.16575,4.4,4.06,56.0,13.61,49.45
-0.087,0.29525,4.4,4.06,56.0,13.61,49.49
-0.087,0.29525,4.398,4.06,56.0,13.61,49.58
-0.085,0.256375,4.398,4.057,56.0,13.61,49.7
-0.069,0.018125,4.398,4.057,56.0,13.63,49.84
-0.03,0.31075,4.396,4.057,56.0,13.61,49.94
-0.086,0.378125,4.395,4.056,56.0,13.61,50.01
0.206,0.269375,4.395,4.055,56.0,13.61,50.09
0.031,0.32375,4.393,4.055,56.0,13.61,50.22
0.018,0.300375,4.393,4.055,56.0,13.63,50.37
0.108,0.044,4.393,4.052,56.0,13.63,50.5
0.282,0.018125,4.39,4.052,56.0,13.61,50.62
0.278,0.196875,4.39,4.052,56.0,13.61,50.72
-0.039,0.25375,4.388,4.05,56.0,13.63,50.8
-0.063,0.25125,4.388,4.05,60.0,13.63,50.88
-0.068,0.328875,4.386,4.05,60.0,13.63,50.93
-0.078,0.313375,4.385,4.05,60.0,13.63,50.93
-0.083,0.25375,4.385,4.048,60.0,13.63,50.96
-0.077,0.199375,4.383,4.047,60.0,13.63,50.99
-0.028,0.160625,4.383,4.047,60.0,13.63,51.03
-0.092,0.25375,4.381,4.047,60.0,13.63,51.04
0.015,0.271875,4.38,4.045,60.0,13.63,50.98
0.196,0.303,4.38,4.045,60.0,13.63,50.94
-0.008,0.313375,4.379,4.045,60.0,13.63,50.94
0.073,0.227875,4.378,4.043,60.0,13.63,50.95
0.234,0.227875,4.378,4.042,60.0,13.61,50.96
0.298,0.26675,4.378,4.042,60.0,13.63,50.96
-0.035,0.349625,4.375,4.042,60.0,13.63,50.92
-0.08,0.163125,4.374,4.04,65.0,13.63,50.89
-0.083,0.32625,4.373,4.04,65.0,13.63,50.82
-0.098,0.328875,4.373,4.04,65.0,13.63,50.71
-0.106,0.160625,4.373,4.04,65.0,13.63,50.6
-0.108,0.02075,4.37,4.037,65.0,13.63,50.53
-0.065,0.22275,4.37,4.037,65.0,13.63,50.47
-0.103,0.22525,4.37,4.037,65.0,13.63,50.41
-0.131,0.261625,4.368,4.036,65.0,13.63,50.28
0.284,0.233125,4.37,4.035,65.0,13.63,50.12
-0.073,0.328875,4.37,4.035,65.0,13.63,50.02
0.006,0.3315,4.368,4.035,65.0,13.63,49.94
0.125,0.3315,4.368,4.035,64.0,13.63,49.86
0.3,0.362625,4.366,4.032,64.0,13.63,49.76
0.036,0.334125,4.365,4.032,64.0,13.63,49.63
-0.125,0.349625,4.364,4.032,64.0,13.63,49.49
-0.119,0.36,4.363,4.031,64.0,13.63,49.36
-0.132,0.378125,4.363,4.03,64.0,13.63,49.17
-0.143,0.2745,4.363,4.03,64.0,13.63,49.0
-0.148,0.25375,4.36,4.03,64.0,13.63,48.9
-0.151,0.018125,4.36,4.027,64.0,13.63,48.83
-0.127,0.02075,4.358,4.027,64.0,13.64,48.8
-0.113,0.357375,4.358,4.027,64.0,13.64,48.72
-0.163,0.29525,4.358,4.027,64.0,13.64,48.64
0.277,0.2875,4.358,4.025,64.0,13.63,48.58
-0.165,0.3445,4.358,4.025,64.0,13.64,48.56
-0.05,0.25375,4.356,4.025,64.0,13.63,48.53
0.045,0.227875,4.355,4.025,60.0,13.64,48.51
0.222,0.1165,4.354,4.023,60.0,13.64,48.49
0.148,0.292625,4.353,4.022,60.0,13.64,48.48
-0.146,0.29,4.353,4.022,60.0,13.64,48.45
-0.156,0.22525,4.351,4.021,60.0,13.64,48.43
-0.157,0.227875,4.35,4.02,60.0,13.64,48.36
-0.168,0.227875,4.35,4.02,60.0,13.64,48.28
-0.172,0.196875,4.348,4.02,60.0,13.65,48.26
-0.173,0.1165,4.348,4.018,60.0,13.65,48.26
-0.17,0.025875,4.348,4.017,60.0,13.65,48.3
-0.116,0.22525,4.345,4.017,60.0,13.65,48.31
-0.164,0.277125,4.345,4.017,60.0,13.65,48.29
-0.179,0.398875,4.344,4.017,60.0,13.65,48.3
0.21,0.305625,4.343,4.015,60.0,13.65,48.32
-0.09,0.435125,4.343,4.015,60.0,13.65,48.35
-0.022,0.404,4.341,4.015,60.0,13.65,48.36
0.101,0.313375,4.34,4.013,60.0,13.65,48.36
0.269,0.246,4.34,4.012,60.0,13.65,48.37
-0.02,0.328875,4.339,4.012,60.0,13.65,48.39
-0.153,0.2745,4.338,4.012,60.0,13.65,48.37
-0.143,0.2305,4.338,4.012,60.0,13.65,48.36
-0.148,0.196875,4.335,4.01,60.0,13.65,48.35
-0.151,0.02325,4.335,4.01,60.0,13.65,48.41
-0.15,0.1165,4.335,4.01,60.0,13.65,48.55
-0.147,0.199375,4.333,4.008,60.0,13.65,48.71
-0.136,0.018125,4.333,4.007,60.0,13.65,48.89
-0.082,0.271875,4.333,4.007,60.0,13.65,49.01
-0.137,0.22525,4.331,4.007,60.0,13.65,49.12
-0.015,0.29,4.331,4.006,60.0,13.65,49.27
0.145,0.36,4.331,4.005,60.0,13.65,49.44
-0.035,0.401375,4.328,4.005,60.0,13.65,49.59
0.05,0.199375,4.328,4.005,60.0,13.65,49.73
0.21,0.16575,4.326,4.002,60.0,13.65,49.85
0.289,0.300375,4.326,4.002,60.0,13.65,49.98
-0.044,0.362625,4.326,4.002,60.0,13.65,50.08
-0.093,0.398875,4.324,4.002,59.0,13.65,50.2
-0.091,0.3445,4.323,4.002,59.0,13.65,50.29
-0.095,0.378125,4.323,4.0,59.0,13.65,50.34
-0.1,0.22275,4.321,4.0,59.0,13.65,50.42
-0.098,0.199375,4.321,4.0,59.0,13.64,50.54
-0.057,0.196875,4.321,3.998,59.0,13.65,50.67
-0.081,0.313375,4.318,3.997,59.0,13.65,50.77
-0.109,0.1165,4.318,3.997,59.0,13.65,50.8
0.31,0.264125,4.316,3.997,59.0,13.65,50.84
-0.077,0.341875,4.316,3.996,59.0,13.65,50.91
0.027,0.25375,4.316,3.995,59.0,13.65,51.0
0.146,0.1165,4.313,3.995,59.0,13.64,51.07
0.333,0.018125,4.313,3.995,59.0,13.65,51.13
0.103,0.308125,4.313,3.995,59.0,13.65,51.16
-0.072,0.32625,4.312,3.992,64.0,13.65,51.17
-0.072,0.227875,4.311,3.992,64.0,13.65,51.18
-0.08,0.202,4.309,3.992,64.0,13.65,51.13
-0.089,0.25375,4.308,3.992,64.0,13.65,51.07
-0.086,0.22525,4.308,3.991,64.0,13.65,51.03
-0.073,0.227875,4.307,3.99,64.0,13.65,51.03
-0.041,0.02075,4.306,3.99,64.0,13.65,51.03
-0.101,0.227875,4.306,3.99,64.0,13.65,50.99
0.253,0.26675,4.304,3.987,64.0,13.65,50.91
-0.02,0.39625,4.303,3.987,64.0,13.64,50.86
0.003,0.2745,4.302,3.987,64.0,13.64,50.85
0.099,0.36,4.301,3.987,64.0,13.64,50.82
0.277,0.202,4.301,3.985,64.0,13.64,50.8
0.241,0.3185,4.301,3.985,64.0,13.65,50.75
-0.06,0.308125,4.298,3.985,64.0,13.64,50.7
-0.077,0.1165,4.298,3.985,65.0,13.65,50.63
-0.078,0.02075,4.297,3.983,65.0,13.65,50.53
-0.092,0.26675,4.296,3.982,65.0,13.65,50.39
-0.098,0.233125,4.296,3.982,65.0,13.65,50.29
-0.099,0.163125,4.294,3.982,65.0,13.65,50.22
-0.089,0.3445,4.293,3.981,65.0,13.65,50.16
-0.049,0.25375,4.293,3.98,65.0,13.65,50.11
-0.111,0.316,4.291,3.98,65.0,13.65,49.99
0.119,0.292625,4.291,3.98,65.0,13.64,49.87
0.096,0.32375,4.289,3.978,65.0,13.64,49.79
-0.011,0.33925,4.288,3.978,65.0,13.65,49.73
0.071,0.3755,4.288,3.978,65.0,13.65,49.65
0.236,0.189,4.286,3.978,65.0,13.64,49.56
0.258,0.32375,4.286,3.975,65.0,13.65,49.46
-0.081,0.365125,4.286,3.975,65.0,13.65,49.34
-0.117,0.1165,4.286,3.975,61.0,13.65,49.23
-0.119,0.163125,4.283,3.975,61.0,13.64,49.08
-0.137,0.19425,4.283,3.974,61.0,13.64,48.89
-0.148,0.163125,4.281,3.973,61.0,13.64,48.77
-0.151,0.248625,4.281,3.973,61.0,13.64,48.68
-0.151,0.25375,4.281,3.973,61.0,13.64,48.63
-0.138,0.163125,4.279,3.971,61.0,13.65,48.58
-0.102,0.248625,4.278,3.97,61.0,13.65,48.5
-0.16,0.25125,4.277,3.97,61.0,13.64,48.45
0.096,0.271875,4.276,3.97,61.0,13.64,48.43
0.008,0.3445,4.276,3.97,61.0,13.64,48.43
-0.054,0.2745,4.276,3.968,61.0,13.65,48.42
0.032,0.227875,4.273,3.968,61.0,13.65,48.42
0.2,0.2745,4.272,3.968,61.0,13.64,48.41
0.224,0.199375,4.271,3.968,61.0,13.64,48.41
-0.109,0.25375,4.271,3.965,61.0,13.64,48.4
-0.14,0.163125,4.271,3.965,58.0,13.64,48.39
-0.138,0.328875,4.268,3.965,58.0,13.64,48.34
-0.151,0.269375,4.268,3.965,58.0,13.64,48.25
-0.156,0.227875,4.267,3.963,58.0,13.64,48.24
-0.157,0.111375,4.266,3.963,58.0,13.64,48.24
-0.155,0.199375,4.266,3.963,58.0,13.64,48.26
-0.152,0.341875,4.266,3.963,58.0,13.65,48.3
-0.099,0.3315,4.263,3.963,58.0,13.64,48.27
-0.147,0.16575,4.263,3.961,58.0,13.64,48.28
-0.159,0.297875,4.263,3.96,58.0,13.64,48.34
0.219,0.336625,4.262,3.96,58.0,13.64,48.43
-0.073,0.16575,4.261,3.959,58.0,13.64,48.52
-0.005,0.1165,4.261,3.958,58.0,13.64,48.64
0.129,0.018125,4.259,3.958,58.0,13.64,48.74
0.292,0.114,4.258,3.958,58.0,13.64,48.85
-0.004,0.347,4.258,3.956,58.0,13.64,48.95
-0.124,0.347,4.257,3.956,56.0,13.64,49.07
-0.12,0.316,4.256,3.955,56.0,13.64,49.15
-0.127,0.437625,4.256,3.955,56.0,13.64,49.18
-0.133,0.362625,4.254,3.955,56.0,13.64,49.25
-0.133,0.362625,4.253,3.954,56.0,13.64,49.35
-0.124,0.220125,4.252,3.953,56.0,13.64,49.5
-0.07,0.018125,4.251,3.953,56.0,13.64,49.65
-0.121,0.341875,4.251,3.951,56.0,13.64,49.74
-0.108,0.269375,4.249,3.953,56.0,13.64,49.8
0.237,0.199375,4.248,3.95,56.0,13.64,49.92
-0.038,0.398875,4.248,3.95,56.0,13.64,50.05
0.038,0.292625,4.248,3.95,56.0,13.64,50.19
0.185,0.305625,4.246,3.95,56.0,13.64,50.31
0.315,0.1735,4.246,3.949,56.0,13.64,50.43
-0.009,0.36775,4.246,3.948,56.0,13.64,50.54
-0.091,0.25125,4.244,3.948,62.0,13.64,50.61
-0.087,0.248625,4.244,3.948,62.0,13.64,50.68
-0.097,0.041375,4.244,3.948,62.0,13.64,50.68
-0.102,0.199375,4.241,3.946,62.0,13.64,50.7
-0.092,0.119125,4.241,3.945,62.0,13.64,50.76
-0.042,0.271875,4.241,3.945,62.0,13.64,50.83
-0.117,0.271875,4.239,3.945,62.0,13.64,50.9
0.098,0.25125,4.239,3.943,62.0,13.64,50.88
0.074,0.31075,4.237,3.943,62.0,13.64,50.86
-0.023,0.1165,4.236,3.943,62.0,13.64,50.86
0.066,0.199375,4.236,3.943,62.0,13.64,50.89
0.234,0.02075,4.235,3.943,62.0,13.64,50.89
0.247,0.27975,4.234,3.94,62.0,13.64,50.89
-0.069,0.372875,4.234,3.94,62.0,13.64,50.86
-0.098,0.357375,4.232,3.94,67.0,13.64,50.83
-0.099,0.328875,4.231,3.94,67.0,13.64,50.74
-0.112,0.0285,4.231,3.939,67.0,13.64,50.61
-0.119,0.328875,4.229,3.938,67.0,13.64,50.49
-0.108,0.26675,4.229,3.938,67.0,13.64,50.39
-0.061,0.163125,4.229,3.938,67.0,13.64,50.32
-0.134,0.271875,4.227,3.936,67.0,13.64,50.23
0.132,0.26675,4.226,3.935,67.0,13.64,50.06
0.012,0.372875,4.224,3.935,67.0,13.64,49.91
-0.045,0.305625,4.224,3.935,67.0,13.64,49.79
0.047,0.347,4.224,3.935,67.0,13.65,49.68
0.226,0.196875,4.222,3.934,67.0,13.64,49.58
0.223,0.32625,4.221,3.933,67.0,13.64,49.45
-0.103,0.378125,4.221,3.933,67.0,13.64,49.31
-0.134,0.19425,4.219,3.933,66.0,13.64,49.17
-0.136,0.292625,4.219,3.933,66.0,13.64,48.98
-0.152,0.401375,4.219,3.931,66.0,13.64,48.78
-0.159,0.347,4.217,3.93,66.0,13.64,48.66
-0.161,0.16575,4.216,3.93,66.0,13.64,48.57
-0.161,0.15025,4.216,3.93,66.0,13.64,48.54
-0.112,0.12425,4.215,3.93,66.0,13.64,48.51
-0.149,0.155375,4.214,3.929,66.0,13.64,48.45
-0.18,0.292625,4.214,3.928,66.0,13.64,48.42
0.218,0.29525,4.211,3.928,66.0,13.64,48.42
-0.115,0.3755,4.211,3.928,66.0,13.64,48.43
-0.052,0.414375,4.211,3.928,66.0,13.64,48.43
0.07,0.22525,4.209,3.926,60.0,13.64,48.42
0.253,0.160625,4.209,3.925,60.0,13.64,48.43
0.003,0.227875,4.209,3.925,60.0,13.64,48.43
-0.161,0.25125,4.209,3.925,60.0,13.64,48.41
-0.151,0.32625,4.209,3.925,60.0,13.64,48.41
-0.15,0.31075,4.209,3.925,60.0,13.64,48.32
-0.155,0.233125,4.209,3.925,60.0,13.64,48.28
-0.152,0.22525,4.207,3.925,60.0,13.65,48.27
-0.147,0.160625,4.206,3.924,60.0,13.64,48.29
-0.142,0.2305,4.206,3.923,60.0,13.65,48.32
-0.088,0.199375,4.206,3.923,60.0,13.65,48.31
-0.131,0.199375,4.206,3.923,60.0,13.65,48.3
-0.147,0.248625,4.204,3.923,60.0,13.65,48.32
0.237,0.26675,4.204,3.923,60.0,13.65,48.36
-0.083,0.357375,4.204,3.923,60.0,13.65,48.37
-0.013,0.248625,4.204,3.92,60.0,13.65,48.38
0.107,0.1165,4.204,3.92,60.0,13.65,48.39
0.289,0.114,4.204,3.92,60.0,13.65,48.4
0.042,0.35475,4.202,3.92,60.0,13.65,48.4
-0.127,0.2305,4.201,3.92,58.0,13.65,48.4
-0.12,0.3445,4.201,3.92,58.0,13.65,48.37
-0.127,0.277125,4.2,3.919,58.0,13.65,48.35
-0.137,0.341875,4.199,3.918,58.0,13.66,48.43
-0.135,0.3445,4.199,3.918,58.0,13.65,48.55
-0.132,0.199375,4.199,3.918,58.0,13.65,48.72
-0.126,0.1165,4.199,3.915,58.0,13.65,48.91
-0.069,0.16575,4.197,3.915,58.0,13.65,49.05
-0.124,0.018125,4.196,3.915,58.0,13.65,49.14
-0.089,0.220125,4.196,3.915,58.0,13.65,49.26
0.228,0.313375,4.196,3.914,58.0,13.65,49.38
-0.029,0.334125,4.194,3.913,58.0,13.65,49.49
0.047,0.22525,4.194,3.913,58.0,13.65,49.61
0.198,0.25375,4.194,3.913,58.0,13.65,49.73
0.321,0.261625,4.192,3.913,58.0,13.65,49.86
-0.009,0.391,4.191,3.911,58.0,13.65,49.95
-0.087,0.240875,4.191,3.91,59.0,13.65,50.06
-0.082,0.1165,4.191,3.91,59.0,13.65,50.15
-0.093,0.227875,4.189,3.91,59.0,13.65,50.2
-0.1,0.35475,4.189,3.909,59.0,13.66,50.28
-0.098,0.341875,4.189,3.908,59.0,13.66,50.4
-0.08,0.292625,4.187,3.908,59.0,13.65,50.52
-0.053,0.372875,4.186,3.908,59.0,13.65,50.65
-0.104,0.292625,4.186,3.908,59.0,13.66,50.69
0.254,0.12425,4.184,3.908,59.0,13.66,50.74
-0.039,0.25375,4.184,3.905,59.0,13.66,50.82
0.006,0.22275,4.184,3.905,59.0,13.66,50.92
0.099,0.25125,4.181,3.905,59.0,13.66,51.01
0.279,0.32375,4.181,3.905,59.0,13.66,51.06
0.237,0.25375,4.181,3.905,59.0,13.66,51.12
-0.063,0.25125,4.179,3.904,59.0,13.66,51.13
-0.079,0.31075,4.179,3.903,63.0,13.65,51.16
-0.081,0.292625,4.179,3.903,63.0,13.65,51.13
-0.089,0.160625,4.176,3.903,63.0,13.65,51.08
-0.092,0.31075,4.176,3.901,63.0,13.66,51.04
-0.087,0.111375,4.174,3.9,63.0,13.65,51.03
-0.031,0.256375,4.174,3.9,63.0,13.66,51.04
-0.092,0.2435,4.174,3.9,63.0,13.66,51.03
-0.062,0.292625,4.171,3.899,63.0,13.66,50.96
0.274,0.246,4.171,3.898,63.0,13.66,50.9
-0.011,0.277125,4.171,3.898,63.0,13.66,50.88
0.065,0.370375,4.17,3.898,63.0,13.66,50.85
0.219,0.025875,4.169,3.896,63.0,13.65,50.83
0.33,0.22275,4.169,3.898,63.0,13.66,50.77
0.0,0.277125,4.166,3.895,63.0,13.65,50.69
-0.065,0.341875,4.166,3.895,64.0,13.65,50.57
-0.057,0.3445,4.166,3.895,64.0,13.65,50.44
-0.07,0.313375,4.164,3.895,64.0,13.65,50.24
-0.074,0.25375,4.164,3.893,64.0,13.65,50.07
-0.074,0.2305,4.162,3.893,64.0,13.66,49.95
-0.069,0.362625,4.161,3.893,64.0,13.66,49.85
-0.015,0.292625,4.161,3.893,64.0,13.65,49.78
-0.057,0.199375,4.16,3.893,64.0,13.66,49.66
-0.075,0.155375,4.159,3.891,64.0,13.66,49.54
0.34,0.246,4.159,3.891,64.0,13.66,49.45
0.009,0.36,4.157,3.891,64.0,13.66,49.38
0.077,0.3755,4.156,3.891,64.0,13.65,49.32
0.211,0.220125,4.156,3.889,64.0,13.65,49.24
0.392,0.111375,4.156,3.888,64.0,13.65,49.15
0.111,0.429875,4.154,3.888,64.0,13.65,49.06
-0.036,0.450625,4.154,3.888,60.0,13.65,48.96
-0.028,0.202,4.153,3.887,60.0,13.65,48.88
-0.034,0.163125,4.152,3.888,60.0,13.65,48.72
-0.044,0.199375,4.152,3.886,60.0,13.65,48.61
-0.048,0.25125,4.152,3.886,60.0,13.65,48.56
-0.05,0.199375,4.15,3.886,60.0,13.65,48.52
-0.055,0.02075,4.149,3.884,60.0,13.65,48.53
-0.017,0.2435,4.149,3.884,60.0,13.65,48.49
-0.072,0.321125,4.148,3.883,60.0,13.65,48.43
-0.094,0.2745,4.147,3.883,60.0,13.65,48.43
0.3,0.22525,4.147,3.883,60.0,13.65,48.45
-0.023,0.256375,4.145,3.883,60.0,13.65,48.47
0.046,0.196875,4.147,3.882,60.0,13.65,48.47
0.175,0.227875,4.144,3.881,60.0,13.65,48.46
0.364,0.199375,4.145,3.881,60.0,13.65,48.46
0.11,0.401375,4.144,3.881,60.0,13.65,48.46
-0.062,0.357375,4.143,3.881,58.0,13.65,48.44
-0.063,0.160625,4.142,3.879,58.0,13.65,48.43
-0.074,0.19425,4.142,3.878,58.0,13.65,48.35
-0.086,0.1165,4.142,3.878,58.0,13.65,48.3
-0.086,0.199375,4.139,3.878,58.0,13.65,48.32
-0.088,0.02075,4.139,3.877,58.0,13.65,48.43
-0.087,0.15275,4.139,3.877,58.0,13.65,48.59
-0.037,0.25125,4.137,3.876,58.0,13.65,48.7
-0.073,0.401375,4.137,3.876,58.0,13.65,48.78
-0.093,0.31075,4.137,3.876,58.0,13.65,48.91
0.303,0.2435,4.137,3.876,58.0,13.65,49.07
-0.035,0.29,4.134,3.873,58.0,13.65,49.23
0.043,0.196875,4.134,3.873,58.0,13.65,49.37
0.166,0.246,4.132,3.873,58.0,13.65,49.5
0.351,0.2305,4.132,3.873,58.0,13.65,49.66
0.103,0.357375,4.132,3.873,58.0,13.65,49.78
-0.075,0.271875,4.132,3.873,58.0,13.65,49.9
-0.075,0.26675,4.132,3.872,58.0,13.65,50.0
-0.084,0.31075,4.129,3.871,58.0,13.65,50.06
-0.094,0.196875,4.129,3.871,58.0,13.65,50.12
-0.097,0.199375,4.128,3.871,58.0,13.65,50.24
-0.098,0.163125,4.127,3.868,58.0,13.65,50.38
-0.05,0.349625,4.127,3.868,58.0,13.64,50.52
-0.102,0.328875,4.127,3.868,58.0,13.65,50.59
-0.108,0.39625,4.124,3.868,58.0,13.65,50.63
0.279,0.29,4.124,3.868,58.0,13.65,50.72
-0.026,0.362625,4.124,3.867,58.0,13.65,50.83
0.044,0.277125,4.122,3.866,58.0,13.64,50.94
0.184,0.038875,4.122,3.866,58.0,13.65,51.01
0.331,0.2175,4.122,3.866,58.0,13.65,51.09
0.012,0.328875,4.12,3.866,58.0,13.64,51.13
-0.092,0.25375,4.119,3.864,62.0,13.64,51.16
-0.093,0.227875,4.119,3.863,62.0,13.65,51.19
-0.107,0.292625,4.119,3.863,62.0,13.65,51.16
-0.116,0.2875,4.117,3.863,62.0,13.65,51.14
-0.118,0.160625,4.117,3.863,62.0,13.64,51.15
-0.084,0.264125,4.117,3.862,62.0,13.65,51.15
-0.087,0.3315,4.114,3.861,62.0,13.65,51.16
-0.129,0.321125,4.114,3.861,62.0,13.64,51.11
0.322,0.28225,4.113,3.861,62.0,13.65,51.03
-0.121,0.3185,4.112,3.861,62.0,13.65,51.02
0.0,0.1165,4.112,3.859,62.0,13.65,51.01
0.111,0.196875,4.112,3.858,62.0,13.65,51.0
0.296,0.19425,4.109,3.858,62.0,13.65,50.97
0.121,0.31075,4.109,3.858,62.0,13.65,50.93
-0.098,0.313375,4.108,3.856,65.0,13.64,50.84
-0.098,0.189,4.107,3.856,65.0,13.64,50.76
-0.105,0.2745,4.107,3.856,65.0,13.64,50.63
-0.115,0.1165,4.107,3.856,65.0,13.64,50.49
-0.118,0.163125,4.105,3.854,65.0,13.65,50.38
-0.117,0.321125,4.104,3.854,65.0,13.65,50.29
-0.086,0.29,4.104,3.854,65.0,13.65,50.24
-0.084,0.02075,4.102,3.853,65.0,13.65,50.16
-0.124,0.1165,4.102,3.853,65.0,13.65,50.04
0.344,0.292625,4.102,3.853,65.0,13.65,49.96
-0.117,0.370375,4.099,3.852,65.0,13.64,49.9
0.009,0.3885,4.099,3.851,65.0,13.64,49.85
0.119,0.114,4.099,3.851,65.0,13.64,49.79
0.308,0.02325,4.097,3.851,65.0,13.63,49.72
0.16,0.22525,4.097,3.851,65.0,13.63,49.63
-0.086,0.370375,4.097,3.851,61.0,13.64,49.54
-0.095,0.36775,4.097,3.849,61.0,13.64,49.43
-0.098,0.313375,4.094,3.848,61.0,13.64,49.27
-0.11,0.1165,4.094,3.848,61.0,13.63,49.12
-0.115,0.1165,4.094,3.848,61.0,13.63,49.04
-0.113,0.196875,4.092,3.847,61.0,13.63,48.98
-0.111,0.119125,4.092,3.846,61.0,13.63,48.95
-0.097,0.018125,4.092,3.846,61.0,13.63,48.89
-0.052,0.196875,4.09,3.846,61.0,13.63,48.8
-0.111,0.328875,4.089,3.846,61.0,13.63,48.72
0.058,0.248625,4.089,3.844,61.0,13.63,48.7
0.148,0.357375,4.088,3.843,61.0,13.63,48.69
-0.007,0.271875,4.087,3.843,61.0,13.63,48.62
0.073,0.199375,4.087,3.843,61.0,13.63,48.58
0.228,0.196875,4.087,3.843,61.0,13.63,48.54
0.285,0.308125,4.087,3.842,61.0,13.63,48.53
-0.058,0.33925,4.084,3.841,61.0,13.63,48.5
-0.104,0.31075,4.084,3.841,56.0,13.63,48.48
-0.105,0.277125,4.084,3.841,56.0,13.63,48.41
-0.118,0.196875,4.082,3.841,56.0,13.63,48.32
-0.125,0.163125,4.082,3.841,56.0,13.63,48.3
-0.127,0.25375,4.082,3.838,56.0,13.63,48.29
-0.124,0.199375,4.079,3.838,56.0,13.63,48.3
-0.123,0.199375,4.079,3.838,56.0,13.63,48.34
-0.075,0.31075,4.079,3.838,56.0,13.63,48.34
-0.112,0.31075,4.079,3.837,56.0,13.63,48.32
-0.134,0.160625,4.078,3.838,56.0,13.63,48.35
0.259,0.22525,4.077,3.836,56.0,13.63,48.39
-0.074,0.316,4.077,3.836,56.0,13.63,48.47
-0.001,0.163125,4.077,3.836,56.0,13.63,48.58
0.112,0.3755,4.074,3.836,56.0,13.63,48.72
0.293,0.199375,4.074,3.834,56.0,13.63,48.88
0.056,0.36,4.074,3.833,56.0,13.63,49.01
-0.131,0.357375,4.073,3.833,56.0,13.63,49.13
-0.128,0.25375,4.072,3.833,56.0,13.63,49.25
-0.135,0.25125,4.072,3.833,56.0,13.63,49.29
-0.146,0.308125,4.07,3.833,56.0,13.63,49.37
-0.151,0.2305,4.069,3.831,56.0,13.63,49.5
-0.149,0.22525,4.069,3.831,56.0,13.63,49.66
-0.125,0.196875,4.069,3.831,56.0,13.63,49.8
-0.106,0.31075,4.067,3.831,56.0,13.63,49.89
-0.155,0.370375,4.067,3.831,56.0,13.63,49.96
0.287,0.305625,4.067,3.829,56.0,13.63,50.06
-0.161,0.300375,4.067,3.828,56.0,13.63,50.21
-0.032,0.025875,4.065,3.828,56.0,13.63,50.33
0.065,0.22525,4.065,3.828,60.0,13.63,50.45
0.249,0.02075,4.065,3.828,60.0,13.63,50.56
0.162,0.25375,4.065,3.827,60.0,13.63,50.67
-0.117,0.3755,4.062,3.826,60.0,13.63,50.76
-0.129,0.357375,4.062,3.826,60.0,13.63,50.85
-0.133,0.313375,4.061,3.826,60.0,13.63,50.9
-0.141,0.196875,4.06,3.826,60.0,13.63,50.92
-0.144,0.227875,4.06,3.824,60.0,13.64,50.97
-0.143,0.308125,4.06,3.823,60.0,13.64,51.01
-0.089,0.132125,4.057,3.823,60.0,13.64,51.09
-0.142,0.1165,4.057,3.823,60.0,13.63,51.1
-0.141,0.313375,4.057,3.823,60.0,13.64,51.07
0.229,0.25125,4.056,3.823,60.0,13.64,51.07
-0.068,0.199375,4.055,3.822,60.0,13.64,51.08
0.002,0.2305,4.055,3.821,60.0,13.63,51.12
0.144,0.227875,4.055,3.821,64.0,13.64,51.14
0.278,0.248625,4.052,3.821,64.0,13.64,51.14
-0.04,0.32625,4.052,3.821,64.0,13.64,51.13
-0.13,0.365125,4.052,3.819,64.0,13.63,51.11
-0.126,0.36,4.051,3.818,64.0,13.63,51.06
-0.138,0.3315,4.05,3.818,64.0,13.64,50.99
-0.149,0.398875,4.05,3.818,64.0,13.63,50.9
-0.15,0.168375,4.048,3.818,64.0,13.64,50.86
-0.105,0.196875,4.047,3.817,64.0,13.63,50.83
-0.131,0.264125,4.047,3.816,64.0,13.63,50.81
-0.17,0.357375,4.046,3.816,64.0,13.63,50.71
0.256,0.305625,4.045,3.816,64.0,13.63,50.59
-0.129,0.313375,4.045,3.816,64.0,13.64,50.52
-0.034,0.292625,4.045,3.816,64.0,13.64,50.47
0.085,0.02325,4.045,3.814,65.0,13.63,50.42
0.268,0.248625,4.042,3.813,65.0,13.63,50.35
0.036,0.32625,4.042,3.813,65.0,13.63,50.28
-0.143,0.3315,4.042,3.813,65.0,13.63,50.17
-0.136,0.1165,4.04,3.813,65.0,13.63,50.04
-0.142,0.199375,4.04,3.813,65.0,13.63,49.83
-0.152,0.25375,4.04,3.811,65.0,13.63,49.63
-0.154,0.25125,4.038,3.811,65.0,13.63,49.5
-0.149,0.372875,4.037,3.811,65.0,13.63,49.41
-0.143,0.3315,4.037,3.811,65.0,13.63,49.34
-0.102,0.02075,4.036,3.811,65.0,13.63,49.24
-0.108,0.2745,4.035,3.808,65.0,13.63,49.11
-0.136,0.347,4.035,3.808,65.0,13.63,49.02
0.317,0.227875,4.035,3.808,65.0,13.63,48.97
-0.108,0.277125,4.032,3.808,65.0,13.63,48.9
0.006,0.199375,4.032,3.808,65.0,13.63,48.84
0.119,0.31075,4.03,3.806,65.0,13.63,48.77
0.313,0.1865,4.03,3.806,65.0,13.63,48.72
0.162,0.328875,4.03,3.806,65.0,13.63,48.65
-0.073,0.31075,4.03,3.806,57.0,13.63,48.59
-0.069,0.163125,4.027,3.806,57.0,13.63,48.55
-0.069,0.114,4.027,3.804,57.0,13.63,48.43
-0.074,0.163125,4.026,3.803,57.0,13.63,48.33
-0.076,0.22525,4.025,3.803,57.0,13.63,48.3
-0.073,0.277125,4.025,3.803,57.0,13.63,48.3
-0.069,0.2305,4.025,3.803,57.0,13.64,48.32
-0.059,0.362625,4.023,3.803,57.0,13.64,48.32
-0.004,0.277125,4.022,3.803,57.0,13.64,48.31
-0.06,0.300375,4.022,3.802,57.0,13.64,48.31
-0.027,0.308125,4.021,3.801,57.0,13.64,48.34
0.297,0.25375,4.02,3.801,57.0,13.63,48.37
0.028,0.22525,4.02,3.801,57.0,13.64,48.37
0.101,0.328875,4.02,3.801,57.0,13.64,48.39
0.243,0.196875,4.018,3.8,57.0,13.64,48.4
0.375,0.269375,4.017,3.799,57.0,13.64,48.4
0.044,0.357375,4.017,3.799,57.0,13.64,48.4
-0.048,0.2745,4.016,3.799,55.0,13.64,48.41
-0.043,0.160625,4.015,3.799,55.0,13.63,48.38
-0.056,0.25125,4.015,3.799,55.0,13.63,48.28
-0.066,0.160625,4.015,3.797,55.0,13.63,48.31
-0.066,0.1165,4.012,3.796,55.0,13.63,48.41
-0.067,0.19425,4.012,3.796,55.0,13.63,48.54
-0.066,0.25375,4.012,3.796,55.0,13.63,48.66
-0.015,0.29525,4.011,3.796,55.0,13.63,48.73
-0.063,0.26675,4.01,3.794,55.0,13.63,48.84
-0.077,0.334125,4.01,3.794,55.0,13.63,49.0
0.301,0.362625,4.01,3.794,55.0,13.63,49.15
0.005,0.191625,4.007,3.794,55.0,13.63,49.3
0.074,0.02325,4.007,3.794,55.0,13.63,49.43
0.204,0.02325,4.006,3.794,55.0,13.63,49.57
0.371,0.284875,4.005,3.791,55.0,13.64,49.72
0.082,0.370375,4.005,3.791,55.0,13.64,49.82
-0.046,0.29525,4.005,3.791,57.0,13.64,49.92
-0.039,0.357375,4.005,3.791,57.0,13.64,50.0
-0.046,0.336625,4.003,3.791,57.0,13.64,50.05
-0.052,0.362625,4.002,3.789,57.0,13.65,50.12
-0.052,0.220125,4.002,3.789,57.0,13.65,50.24
-0.046,0.29,4.0,3.789,57.0,13.65,50.38
0.002,0.196875,4.0,3.789,57.0,13.65,50.52
-0.054,0.2305,4.0,3.789,57.0,13.64,50.59
0.046,0.271875,3.998,3.789,57.0,13.65,50.63
0.24,0.341875,3.997,3.789,57.0,13.65,50.71
0.032,0.227875,3.997,3.786,57.0,13.65,50.81
0.112,0.02325,3.997,3.786,57.0,13.64,50.9
0.265,0.248625,3.995,3.786,57.0,13.64,50.99
0.345,0.3185,3.995,3.786,57.0,13.64,51.06
0.008,0.33925,3.995,3.785,57.0,13.64,51.1
-0.044,0.25125,3.992,3.786,63.0,13.64,51.15
-0.045,0.227875,3.992,3.784,63.0,13.64,51.16
-0.058,0.160625,3.992,3.784,63.0,13.64,51.12
-0.064,0.1165,3.991,3.784,63.0,13.64,51.07
-0.066,0.22275,3.99,3.784,63.0,13.64,51.03
-0.008,0.36,3.99,3.784,63.0,13.64,51.02
-0.069,0.297875,3.987,3.781,63.0,13.64,51.0
-0.082,0.32375,3.987,3.781,63.0,13.64,50.9
0.302,0.25125,3.987,3.781,63.0,13.64,50.79
-0.005,0.119125,3.986,3.781,63.0,13.64,50.74
0.064,0.1165,3.985,3.781,63.0,13.64,50.7
0.201,0.328875,3.985,3.779,63.0,13.64,50.66
0.339,0.372875,3.985,3.78,63.0,13.64,50.61
0.024,0.357375,3.983,3.779,63.0,13.64,50.51
-0.075,0.227875,3.982,3.779,65.0,13.64,50.42
-0.069,0.29525,3.982,3.779,65.0,13.64,50.27
-0.08,0.25375,3.981,3.779,65.0,13.64,50.07
-0.089,0.370375,3.98,3.777,65.0,13.64,49.87
-0.091,0.362625,3.98,3.777,65.0,13.64,49.72
-0.09,0.362625,3.98,3.776,65.0,13.64,49.59
-0.056,0.248625,3.978,3.776,65.0,13.64,49.5
-0.057,0.297875,3.978,3.776,65.0,13.64,49.36
-0.1,0.227875,3.978,3.776,65.0,13.64,49.21
0.357,0.22525,3.978,3.774,65.0,13.64,49.1
-0.098,0.292625,3.975,3.774,65.0,13.64,49.01
0.022,0.227875,3.975,3.774,65.0,13.64,48.92
0.132,0.316,3.975,3.774,65.0,13.64,48.83
0.321,0.271875,3.973,3.774,65.0,13.64,48.76
0.181,0.347,3.973,3.772,65.0,13.64,48.69
-0.071,0.3315,3.973,3.772,60.0,13.64,48.62
-0.075,0.401375,3.971,3.772,60.0,13.64,48.56
-0.086,0.25125,3.97,3.772,60.0,13.64,48.45
-0.091,0.25125,3.97,3.771,60.0,13.64,48.36
-0.093,0.202,3.97,3.771,60.0,13.64,48.33
-0.093,0.02325,3.969,3.771,60.0,13.64,48.32
-0.09,0.199375,3.968,3.771,60.0,13.64,48.36
-0.043,0.199375,3.968,3.77,60.0,13.63,48.34
-0.074,0.25375,3.968,3.77,60.0,13.63,48.33
-0.098,0.313375,3.966,3.769,60.0,13.63,48.35
0.313,0.25375,3.965,3.769,60.0,13.63,48.37
-0.052,0.316,3.965,3.769,60.0,13.63,48.4
0.037,0.25375,3.965,3.769,60.0,13.63,48.4
0.151,0.1165,3.963,3.766,60.0,13.63,48.4
0.338,0.256375,3.963,3.766,60.0,13.63,48.41
0.132,0.29,3.963,3.766,60.0,13.63,48.42
-0.076,0.308125,3.963,3.766,58.0,13.63,48.42
-0.073,0.2745,3.963,3.766,58.0,13.64,48.5
-0.078,0.277125,3.96,3.766,58.0,13.64,48.53
-0.089,0.19425,3.96,3.765,58.0,13.64,48.62
-0.092,0.32375,3.958,3.764,58.0,13.64,48.77
-0.089,0.1165,3.958,3.764,58.0,13.64,48.93
-0.057,0.15025,3.958,3.764,58.0,13.64,49.12
-0.048,0.316,3.958,3.764,58.0,13.64,49.27
-0.09,0.202,3.955,3.764,58.0,13.64,49.38
0.351,0.284875,3.955,3.762,58.0,13.64,49.49
-0.101,0.292625,3.955,3.761,58.0,13.64,49.66
0.033,0.202,3.954,3.761,58.0,13.64,49.82
0.137,0.02325,3.953,3.761,58.0,13.64,49.97
0.322,0.114,3.953,3.761,58.0,13.63,50.09
0.228,0.398875,3.953,3.761,58.0,13.64,50.22
-0.041,0.313375,3.953,3.761,61.0,13.64,50.32
-0.044,0.277125,3.95,3.759,61.0,13.64,50.44
-0.045,0.25125,3.95,3.759,61.0,13.64,50.5
-0.052,0.401375,3.95,3.759,61.0,13.64,50.56
-0.05,0.2305,3.949,3.759,61.0,13.64,50.67
0.009,0.25125,3.948,3.759,61.0,13.64,50.8
-0.043,0.29525,3.948,3.756,61.0,13.64,50.95
-0.067,0.3885,3.948,3.756,61.0,13.64,51.01
0.328,0.2435,3.945,3.756,61.0,13.64,51.02
0.007,0.204625,3.945,3.756,61.0,13.63,51.07
0.084,0.158,3.945,3.756,61.0,13.63,51.15
0.212,0.12175,3.944,3.756,61.0,13.63,51.2
0.372,0.19425,3.943,3.755,61.0,13.63,51.25
0.078,0.22525,3.943,3.754,61.0,13.64,51.27
-0.047,0.292625,3.943,3.754,68.0,13.63,51.29
-0.048,0.168375,3.943,3.754,68.0,13.63,51.27
-0.061,0.25125,3.941,3.754,68.0,13.63,51.2
-0.069,0.370375,3.94,3.754,68.0,13.63,51.11
-0.06,0.372875,3.94,3.754,68.0,13.63,51.04
-0.012,0.227875,3.94,3.751,68.0,13.63,51.01
-0.087,0.25375,3.938,3.751,68.0,13.63,50.97
0.121,0.2435,3.938,3.751,68.0,13.63,50.87
0.124,0.31075,3.938,3.751,68.0,13.64,50.74
0.005,0.271875,3.936,3.751,68.0,13.64,50.65
0.094,0.271875,3.935,3.751,68.0,13.63,50.58
0.26,0.199375,3.935,3.75,68.0,13.63,50.52
0.284,0.313375,3.935,3.749,68.0,13.63,50.44
-0.042,0.2305,3.934,3.749,68.0,13.63,50.34
-0.075,0.196875,3.933,3.749,68.0,13.63,50.22
-0.073,0.2745,3.933,3.749,68.0,13.63,50.07
-0.086,0.398875,3.933,3.749,68.0,13.63,49.9
-0.094,0.1735,3.93,3.749,68.0,13.63,49.74
-0.097,0.398875,3.93,3.747,68.0,13.63,49.62
-0.098,0.22275,3.929,3.746,68.0,13.63,49.55
-0.036,0.114,3.928,3.746,68.0,13.63,49.48
-0.097,0.1165,3.928,3.746,68.0,13.63,49.35
-0.11,0.32625,3.928,3.746,68.0,13.63,49.25
0.288,0.271875,3.928,3.746,68.0,13.63,49.18
-0.028,0.297875,3.926,3.745,68.0,13.63,49.11
0.04,0.316,3.925,3.744,68.0,13.63,49.06
0.178,0.1165,3.925,3.744,60.0,13.63,49.0
0.335,0.160625,3.923,3.744,60.0,13.63,48.92
0.027,0.29,3.923,3.744,60.0,13.63,48.85
-0.089,0.357375,3.923,3.744,60.0,13.63,48.78
-0.083,0.3885,3.923,3.744,60.0,13.63,48.69
-0.095,0.29525,3.921,3.741,60.0,13.63,48.54
-0.106,0.313375,3.92,3.741,60.0,13.63,48.45
-0.108,0.227875,3.92,3.741,60.0,13.63,48.43
-0.108,0.269375,3.92,3.741,60.0,13.63,48.41
-0.106,0.227875,3.918,3.741,60.0,13.63,48.43
-0.086,0.256375,3.918,3.741,60.0,13.63,48.39
-0.057,0.3315,3.918,3.741,60.0,13.63,48.36
-0.113,0.3445,3.918,3.739,60.0,13.63,48.37
0.225,0.277125,3.915,3.739,60.0,13.63,48.4
-0.019,0.36,3.915,3.739,60.0,13.63,48.41
-0.004,0.313375,3.915,3.739,60.0,13.63,48.41
0.085,0.32625,3.913,3.739,60.0,13.63,48.42
0.257,0.018125,3.913,3.736,60.0,13.63,48.42
0.263,0.163125,3.913,3.736,60.0,13.61,48.42
-0.062,0.199375,3.911,3.736,60.0,13.63,48.42
-0.089,0.02325,3.91,3.736,55.0,13.61,48.42
-0.09,0.018125,3.91,3.736,55.0,13.63,48.36
-0.104,0.1165,3.909,3.736,55.0,13.61,48.3
-0.111,0.277125,3.908,3.736,55.0,13.63,48.28
-0.112,0.25125,3.908,3.734,55.0,13.63,48.34
-0.111,0.199375,3.908,3.734,55.0,13.63,48.47
-0.098,0.271875,3.908,3.734,55.0,13.63,48.61
-0.055,0.271875,3.906,3.734,55.0,13.61,48.74
-0.113,0.271875,3.905,3.734,55.0,13.61,48.88
0.08,0.2875,3.905,3.734,55.0,13.63,49.06
0.096,0.32375,3.904,3.734,55.0,13.63,49.23
-0.013,0.328875,3.904,3.732,55.0,13.63,49.39
0.073,0.2305,3.903,3.731,55.0,13.63,49.51
0.234,0.163125,3.903,3.731,55.0,13.64,49.66
0.292,0.308125,3.903,3.731,55.0,13.64,49.8
-0.04,0.31075,3.9,3.731,55.0,13.64,49.91
-0.083,0.31075,3.9,3.73,58.0,13.64,50.01
-0.078,0.1165,3.9,3.731,58.0,13.64,50.08
-0.087,0.19425,3.9,3.729,58.0,13.64,50.11
-0.088,0.313375,3.9,3.729,58.0,13.63,50.19
-0.085,0.158,3.899,3.729,58.0,13.64,50.32
-0.054,0.168375,3.898,3.729,58.0,13.64,50.45
-0.047,0.227875,3.898,3.729,58.0,13.64,50.58
-0.088,0.3315,3.896,3.729,58.0,13.64,50.6
0.358,0.2435,3.895,3.727,58.0,13.64,50.64
-0.094,0.305625,3.895,3.726,58.0,13.64,50.71
0.036,0.163125,3.895,3.726,58.0,13.64,50.82
0.138,0.25125,3.895,3.726,58.0,13.64,50.86
0.321,0.29525,3.894,3.726,58.0,13.64,50.9
0.187,0.35475,3.893,3.726,58.0,13.64,50.92
-0.058,0.385875,3.893,3.724,63.0,13.64,50.91
-0.064,0.163125,3.893,3.724,63.0,13.64,50.9
-0.071,0.292625,3.891,3.724,63.0,13.64,50.82
-0.081,0.292625,3.891,3.724,63.0,13.64,50.72
-0.083,0.347,3.891,3.724,63.0,13.64,50.65
-0.075,0.29525,3.891,3.724,63.0,13.64,50.61
-0.029,0.22525,3.888,3.724,63.0,13.64,50.59
-0.098,0.163125,3.888,3.722,63.0,13.64,50.55
0.071,0.196875,3.887,3.721,63.0,13.64,50.44
0.136,0.292625,3.886,3.721,63.0,13.64,50.38
-0.012,0.199375,3.886,3.721,63.0,13.64,50.34
0.071,0.16575,3.886,3.721,63.0,13.64,50.32
0.229,0.02075,3.886,3.721,63.0,13.64,50.3
0.272,0.196875,3.884,3.721,63.0,13.63,50.26
-0.065,0.341875,3.883,3.72,63.0,13.64,50.19
-0.106,0.3445,3.883,3.719,64.0,13.64,50.12
-0.105,0.328875,3.882,3.719,64.0,13.64,50.02
-0.121,0.271875,3.881,3.719,64.0,13.63,49.86
-0.127,0.22525,3.881,3.719,64.0,13.63,49.75
-0.127,0.341875,3.881,3.719,64.0,13.63,49.65
-0.123,0.292625,3.879,3.717,64.0,13.63,49.59
-0.069,0.25125,3.878,3.719,64.0,13.63,49.52
-0.124,0.391,3.878,3.716,64.0,13.64,49.41
-0.121,0.31075,3.877,3.716,64.0,13.63,49.28
0.258,0.25125,3.876,3.716,64.0,13.63,49.21
-0.044,0.248625,3.876,3.716,64.0,13.63,49.13
0.023,0.163125,3.876,3.716,64.0,13.63,49.06
0.166,0.160625,3.876,3.716,61.0,13.64,48.99
0.314,0.02075,3.873,3.715,61.0,13.63,48.9
-0.007,0.2875,3.873,3.714,61.0,13.63,48.82
-0.114,0.336625,3.873,3.714,61.0,13.63,48.73
-0.111,0.2305,3.872,3.714,61.0,13.63,48.64
-0.124,0.199375,3.871,3.714,61.0,13.63,48.49
-0.139,0.160625,3.871,3.714,61.0,13.63,48.41
-0.143,0.199375,3.871,3.714,61.0,13.63,48.4
-0.146,0.199375,3.871,3.714,61.0,13.63,48.39
-0.133,0.347,3.869,3.712,61.0,13.63,48.41
-0.097,0.357375,3.868,3.712,61.0,13.63,48.38
-0.156,0.32625,3.868,3.712,61.0,13.63,48.37
0.118,0.227875,3.867,3.712,61.0,13.63,48.39
-0.009,0.45575,3.866,3.712,61.0,13.63,48.41
-0.053,0.2745,3.866,3.712,61.0,13.63,48.42
0.034,0.160625,3.866,3.712,59.0,13.63,48.42
0.205,0.025875,3.864,3.709,59.0,13.63,48.42
0.229,0.26675,3.863,3.709,59.0,13.63,48.44
-0.106,0.29,3.863,3.709,59.0,13.63,48.44
-0.137,0.02075,3.863,3.709,59.0,13.63,48.51
-0.136,0.018125,3.862,3.709,59.0,13.63,48.61
-0.147,0.1165,3.861,3.709,59.0,13.63,48.7
-0.152,0.248625,3.861,3.708,59.0,13.63,48.86
-0.151,0.31075,3.861,3.707,59.0,13.63,49.04
-0.106,0.119125,3.861,3.707,59.0,13.63,49.25
-0.129,0.22525,3.858,3.707,59.0,13.63,49.41
-0.152,0.341875,3.858,3.707,59.0,13.63,49.53
0.263,0.2875,3.858,3.707,59.0,13.63,49.63
-0.112,0.25375,3.856,3.707,59.0,13.63,49.78
-0.005,0.25125,3.856,3.704,59.0,13.63,49.93
0.111,0.25375,3.856,3.704,59.0,13.63,50.06
0.3,0.313375,3.856,3.704,59.0,13.63,50.19
0.088,0.3755,3.854,3.704,59.0,13.63,50.29
-0.1,0.35475,3.853,3.704,63.0,13.63,50.38
-0.094,0.25125,3.853,3.704,63.0,13.63,50.47
-0.098,0.25375,3.853,3.704,63.0,13.63,50.52
-0.102,0.313375,3.853,3.704,63.0,13.63,50.55
-0.098,0.25125,3.851,3.704,63.0,13.63,50.65
-0.036,0.2305,3.851,3.702,63.0,13.63,50.75
-0.095,0.114,3.851,3.702,63.0,13.63,50.85
-0.112,0.25375,3.849,3.702,63.0,13.63,50.88
0.278,0.246,3.848,3.702,63.0,13.63,50.86
-0.028,0.292625,3.848,3.702,63.0,13.63,50.86
0.045,0.297875,3.848,3.702,63.0,13.63,50.91
0.18,0.02325,3.848,3.7,63.0,13.63,50.94
0.324,0.35475,3.846,3.699,63.0,13.63,50.95
0.015,0.398875,3.846,3.699,63.0,13.63,50.92
-0.088,0.31075,3.846,3.699,67.0,13.63,50.89
-0.086,0.313375,3.844,3.699,67.0,13.63,50.85
-0.098,0.2745,3.843,3.699,67.0,13.63,50.74
-0.104,0.308125,3.843,3.698,67.0,13.63,50.65
-0.105,0.163125,3.843,3.698,67.0,13.63,50.58
-0.047,0.202,3.842,3.698,67.0,13.63,50.56
-0.106,0.3445,3.841,3.697,67.0,13.63,50.53
-0.13,0.264125,3.841,3.697,67.0,13.63,50.44
0.272,0.269375,3.841,3.697,67.0,13.63,50.33
-0.054,0.2305,3.841,3.697,67.0,13.63,50.26
0.013,0.25375,3.841,3.697,67.0,13.63,50.21
0.141,0.277125,3.838,3.694,67.0,13.63,50.15
0.294,0.300375,3.838,3.694,67.0,13.63,50.08
-0.01,0.35475,3.838,3.694,67.0,13.63,49.98
-0.128,0.349625,3.836,3.694,66.0,13.63,49.84
-0.12,0.25125,3.836,3.694,66.0,13.63,49.7
-0.134,0.02325,3.836,3.694,66.0,13.63,49.49
-0.142,0.271875,3.836,3.694,66.0,13.63,49.32
-0.144,0.227875,3.833,3.693,66.0,13.63,49.21
-0.143,0.33925,3.833,3.692,66.0,13.63,49.11
-0.099,0.41175,3.833,3.692,66.0,13.63,49.07
-0.119,0.246,3.833,3.692,66.0,13.63,48.97
-0.153,0.256375,3.831,3.692,66.0,13.63,48.85
0.281,0.204625,3.831,3.692,66.0,13.63,48.78
-0.123,0.227875,3.831,3.692,66.0,13.63,48.73
-0.02,0.277125,3.831,3.69,66.0,13.63,48.7
0.089,0.1165,3.829,3.689,66.0,13.63,48.66
0.277,0.16575,3.828,3.689,66.0,13.63,48.62
0.085,0.35225,3.828,3.689,66.0,13.63,48.58
-0.136,0.22525,3.828,3.689,60.0,13.63,48.54
-0.133,0.277125,3.828,3.689,60.0,13.63,48.5
-0.138,0.316,3.826,3.689,60.0,13.63,48.4
-0.151,0.22525,3.826,3.689,60.0,13.63,48.32
-0.155,0.271875,3.826,3.688,60.0,13.63,48.32
-0.156,0.1165,3.826,3.687,60.0,13.63,48.32
-0.153,0.25125,3.823,3.687,60.0,13.63,48.34
-0.107,0.269375,3.823,3.687,60.0,13.63,48.35
-0.131,0.38325,3.823,3.687,60.0,13.63,48.33
-0.155,0.357375,3.822,3.687,60.0,13.63,48.36
0.281,0.284875,3.821,3.687,60.0,13.64,48.39
-0.132,0.328875,3.821,3.685,60.0,13.63,48.41
-0.016,0.297875,3.821,3.684,60.0,13.63,48.41
0.092,0.227875,3.821,3.684,60.0,13.63,48.42
0.282,0.199375,3.819,3.684,60.0,13.63,48.42
0.123,0.2745,3.818,3.684,60.0,13.63,48.42
-0.113,0.269375,3.818,3.684,58.0,13.63,48.41
-0.11,0.1165,3.818,3.684,58.0,13.63,48.41
-0.111,0.160625,3.818,3.683,58.0,13.63,48.34
-0.12,0.271875,3.817,3.684,58.0,13.63,48.29
-0.119,0.3885,3.816,3.682,58.0,13.63,48.3
-0.115,0.347,3.816,3.682,58.0,13.63,48.31
-0.112,0.328875,3.816,3.682,58.0,13.63,48.38
-0.067,0.114,3.816,3.682,58.0,13.63,48.44
-0.086,0.163125,3.814,3.682,58.0,13.61,48.51
-0.114,0.316,3.813,3.682,58.0,13.63,48.61
0.307,0.26675,3.813,3.682,58.0,13.63,48.75
-0.093,0.170875,3.813,3.682,58.0,13.61,48.88
0.018,0.163125,3.812,3.679,58.0,13.63,49.02
0.128,0.25375,3.811,3.679,58.0,13.63,49.15
0.317,0.160625,3.811,3.679,58.0,13.63,49.29
0.151,0.36,3.811,3.679,58.0,13.61,49.4
-0.079,0.32625,3.811,3.679,58.0,13.61,49.49
-0.076,0.16575,3.808,3.679,58.0,13.61,49.6
-0.078,0.199375,3.808,3.679,58.0,13.61,49.64
-0.087,0.261625,3.808,3.679,58.0,13.61,49.71
-0.087,0.305625,3.808,3.677,58.0,13.61,49.81
-0.084,0.158,3.808,3.677,58.0,13.61,49.92
-0.033,0.227875,3.808,3.677,58.0,13.61,50.06
-0.076,0.25125,3.806,3.677,58.0,13.61,50.15
-0.094,0.36775,3.806,3.677,58.0,13.63,50.2
0.304,0.2875,3.806,3.675,58.0,13.61,50.28
-0.01,0.401375,3.806,3.674,58.0,13.63,50.42
0.065,0.25375,3.803,3.674,58.0,13.61,50.55
0.192,0.199375,3.803,3.674,58.0,13.63,50.67
0.359,0.347,3.803,3.674,58.0,13.61,50.77
0.072,0.349625,3.803,3.674,58.0,13.63,50.86
-0.065,0.163125,3.803,3.674,63.0,13.61,50.91
-0.063,0.199375,3.802,3.674,63.0,13.61,50.95
-0.071,0.248625,3.801,3.674,63.0,13.63,50.94
-0.078,0.2435,3.801,3.672,63.0,13.63,50.91
-0.076,0.3445,3.801,3.672,63.0,13.63,50.9
-0.026,0.199375,3.799,3.672,63.0,13.63,50.89
-0.057,0.2435,3.799,3.672,63.0,13.63,50.89
-0.093,0.372875,3.799,3.672,63.0,13.63,50.82
0.322,0.25375,3.799,3.672,63.0,13.63,50.72
-0.053,0.038875,3.799,3.672,63.0,13.63,50.67
0.039,0.163125,3.797,3.672,63.0,13.63,50.64
0.156,0.02075,3.796,3.669,63.0,13.61,50.59
0.332,0.158,3.796,3.669,63.0,13.63,50.55
0.093,0.38325,3.796,3.669,63.0,13.63,50.47
-0.081,0.362625,3.794,3.669,65.0,13.63,50.38
-0.075,0.437625,3.794,3.669,65.0,13.61,50.28
-0.084,0.292625,3.794,3.669,65.0,13.61,50.11
-0.092,0.3445,3.794,3.669,65.0,13.61,49.95
-0.092,0.414375,3.792,3.669,65.0,13.61,49.84
-0.089,0.32375,3.791,3.667,65.0,13.61,49.73
-0.035,0.32625,3.791,3.667,65.0,13.61,49.66
-0.079,0.357375,3.791,3.667,65.0,13.61,49.56
-0.101,0.277125,3.791,3.667,65.0,13.61,49.42
0.3,0.26675,3.789,3.667,65.0,13.61,49.32
-0.012,0.2875,3.789,3.667,65.0,13.61,49.22
0.053,0.1165,3.789,3.667,65.0,13.61,49.14
0.175,0.300375,3.789,3.667,65.0,13.61,49.06
0.344,0.227875,3.787,3.664,65.0,13.61,48.98
0.061,0.29,3.786,3.664,65.0,13.61,48.88
-0.083,0.147625,3.786,3.664,62.0,13.61,48.78
-0.077,0.176125,3.786,3.664,62.0,13.61,48.69
-0.089,0.16575,3.785,3.664,62.0,13.61,48.54
-0.099,0.25125,3.784,3.664,62.0,13.61,48.45
-0.102,0.256375,3.784,3.664,62.0,13.61,48.41
-0.103,0.2305,3.784,3.663,62.0,13.61,48.4
-0.086,0.25375,3.784,3.663,62.0,13.63,48.41
-0.053,0.365125,3.784,3.662,62.0,13.63,48.4
-0.111,0.347,3.781,3.662,62.0,13.63,48.38
0.196,0.26675,3.781,3.662,62.0,13.63,48.4
0.002,0.357375,3.781,3.662,62.0,13.63,48.42
-0.002,0.246,3.779,3.662,62.0,13.63,48.43
0.085,0.163125,3.779,3.662,62.0,13.63,48.44
