ECG,EMG,foot GSR,hand GSR,HR,marker,RESP
-0.083,0.124,9.051,19.075,90.0,12.36,39.98
-0.079,0.145,9.049,19.088,90.0,12.36,40.0
-0.086,0.166,9.046,19.1,90.0,12.36,39.97
-0.045,0.207,9.045,19.102,90.0,12.36,39.87
-0.109,0.124,9.041,19.102,90.0,12.36,39.75
0.077,0.394,9.039,19.105,90.0,12.36,39.73
0.003,0.228,9.036,19.105,90.0,12.36,39.8
-0.008,0.166,9.035,19.1,90.0,12.36,39.85
0.142,0.186,9.034,19.095,90.0,12.36,39.87
0.207,0.186,9.031,19.09,90.0,12.36,39.86
-0.059,0.228,9.031,19.103,90.0,12.36,39.88
-0.072,0.207,9.031,19.129,90.0,12.36,39.9
-0.074,0.186,9.029,19.141,90.0,12.36,39.9
-0.074,0.186,9.026,19.15,90.0,12.36,39.81
-0.045,0.249,9.024,19.154,90.0,12.36,39.65
-0.12,0.124,9.022,19.154,90.0,12.36,39.62
0.201,0.331,9.021,19.154,90.0,12.36,39.68
-0.053,0.166,9.019,19.152,90.0,12.36,39.75
0.057,0.249,9.017,19.152,90.0,12.37,39.75
0.244,0.186,9.015,19.148,90.0,12.36,39.74
0.081,0.228,9.014,19.145,90.0,12.36,39.75
-0.062,0.166,9.012,19.144,88.0,12.36,39.77
-0.053,0.145,9.011,19.144,88.0,12.36,39.78
-0.072,0.186,9.009,19.143,88.0,12.36,39.8
-0.055,0.124,9.009,19.14,88.0,12.36,39.68
-0.058,0.186,9.007,19.135,88.0,12.36,39.55
-0.124,0.186,9.005,19.134,88.0,12.36,39.55
0.169,0.331,9.003,19.135,88.0,12.36,39.71
-0.007,0.186,9.002,19.137,88.0,12.36,39.75
0.098,0.207,8.999,19.137,88.0,12.36,39.74
0.255,0.207,8.997,19.141,88.0,12.36,39.73
0.021,0.249,8.995,19.147,88.0,12.36,39.75
-0.055,0.186,8.994,19.143,86.0,12.36,39.82
-0.056,0.124,8.992,19.14,86.0,12.36,39.89
-0.074,0.207,8.99,19.135,86.0,12.36,40.04
-0.037,0.207,8.989,19.13,86.0,12.36,40.03
-0.079,0.186,8.989,19.125,86.0,12.36,40.02
0.072,0.269,8.988,19.12,86.0,12.36,39.91
-0.018,0.249,8.987,19.115,86.0,12.36,39.67
0.025,0.186,8.987,19.106,86.0,12.36,39.34
0.164,0.186,8.984,19.095,86.0,12.36,39.05
0.216,0.145,8.984,19.084,86.0,12.36,38.76
-0.017,0.166,8.982,19.071,86.0,12.36,38.44
-0.036,0.186,8.982,19.066,86.0,12.36,38.1
-0.042,0.186,8.982,19.058,86.0,12.36,37.81
-0.057,0.145,8.979,19.052,86.0,12.36,37.5
-0.017,0.186,8.978,19.042,86.0,12.36,37.08
-0.074,0.186,8.977,19.034,86.0,12.36,36.77
0.175,0.331,8.977,19.026,86.0,12.36,36.6
-0.103,0.228,8.974,19.028,86.0,12.36,36.42
0.046,0.145,8.973,19.03,86.0,12.36,36.21
0.197,0.186,8.972,19.026,86.0,12.36,35.99
0.197,0.124,8.97,19.022,86.0,12.36,35.75
-0.022,0.186,8.969,19.018,86.0,12.36,35.56
-0.043,0.166,8.968,19.015,85.0,12.36,35.37
-0.05,0.145,8.967,19.011,85.0,12.36,35.25
-0.049,0.186,8.964,19.004,85.0,12.36,35.06
-0.034,0.145,8.964,18.998,85.0,12.36,34.77
-0.103,0.145,8.962,18.991,85.0,12.36,34.61
0.136,0.269,8.958,18.981,85.0,12.36,34.49
-0.006,0.186,8.958,18.981,85.0,12.36,34.49
0.097,0.186,8.957,18.975,85.0,12.36,34.4
0.243,0.207,8.955,18.969,85.0,12.36,34.3
0.03,0.207,8.954,18.964,85.0,12.36,34.27
-0.055,0.124,8.952,18.957,88.0,12.36,34.3
-0.055,0.249,8.952,18.951,88.0,12.36,34.3
-0.063,0.186,8.949,18.946,88.0,12.36,34.3
-0.044,0.186,8.949,18.944,88.0,12.36,34.2
-0.124,0.249,8.947,18.939,88.0,12.36,34.18
0.128,0.331,8.947,18.938,88.0,12.36,34.31
-0.049,0.166,8.945,18.94,88.0,12.36,34.57
0.053,0.166,8.944,18.95,88.0,12.36,34.82
0.205,0.228,8.942,18.944,88.0,12.36,35.12
0.013,0.166,8.942,18.939,88.0,12.36,35.57
-0.1,0.186,8.939,18.934,93.0,12.36,35.99
-0.098,0.145,8.939,18.93,93.0,12.37,36.38
-0.073,0.186,8.939,18.928,93.0,12.34,36.76
0.095,0.269,8.937,18.925,93.0,12.26,37.02
0.083,0.352,8.935,18.923,93.0,12.25,37.34
-0.178,0.228,8.934,18.921,93.0,12.26,37.72
-0.03,0.186,8.934,18.916,109.0,12.26,38.05
0.12,0.166,8.937,18.914,109.0,12.27,38.27
0.117,0.145,8.93,18.906,109.0,12.26,38.54
-0.092,0.166,8.93,18.906,109.0,12.26,38.54
-0.097,0.145,8.928,18.905,109.0,12.26,38.55
-0.067,0.207,8.924,18.903,109.0,12.26,38.47
-0.082,0.228,8.924,18.903,109.0,12.26,38.21
-0.125,0.145,8.922,18.905,109.0,12.25,37.88
0.121,0.331,8.921,18.906,109.0,12.25,37.65
-0.029,0.186,8.92,18.914,109.0,12.23,37.47
0.092,0.186,8.917,18.928,109.0,12.25,37.3
0.208,0.186,8.916,18.945,109.0,12.26,37.08
-0.033,0.124,8.915,18.949,109.0,12.27,36.87
-0.078,0.145,8.913,18.954,89.0,12.26,36.65
-0.065,0.145,8.912,18.956,89.0,12.27,36.4
-0.038,0.249,8.911,18.961,89.0,12.25,36.17
-0.113,0.166,8.91,18.964,89.0,12.25,35.83
0.176,0.373,8.908,18.965,89.0,12.25,35.57
-0.013,0.228,8.907,18.968,89.0,12.25,35.39
0.064,0.186,8.906,18.968,89.0,12.25,35.29
0.21,0.145,8.906,18.968,89.0,12.25,35.17
0.086,0.249,8.905,18.968,89.0,12.25,35.03
-0.083,0.207,8.905,18.966,99.0,12.26,34.93
-0.074,0.145,8.902,18.968,99.0,12.27,34.75
-0.064,0.124,8.902,18.968,99.0,12.27,34.74
-0.059,0.166,8.902,18.97,99.0,12.26,34.57
-0.139,0.166,8.902,18.962,99.0,12.26,34.37
0.187,0.311,8.902,18.955,99.0,12.26,34.27
-0.044,0.166,8.9,18.945,99.0,12.26,34.26
0.055,0.186,8.9,18.935,99.0,12.25,34.25
0.224,0.104,8.9,18.925,99.0,12.25,34.21
0.005,0.104,8.898,18.915,99.0,12.23,34.19
-0.085,0.166,8.897,18.906,95.0,12.27,34.2
-0.078,0.207,8.896,18.9,95.0,12.29,34.19
-0.092,0.186,8.895,18.893,95.0,12.29,34.2
-0.106,0.228,8.895,18.887,95.0,12.28,34.1
-0.064,0.166,8.892,18.879,95.0,12.28,34.0
-0.103,0.166,8.892,18.874,95.0,12.27,34.0
0.046,0.373,8.892,18.867,95.0,12.29,34.07
-0.009,0.249,8.892,18.862,95.0,12.31,34.11
-0.011,0.145,8.89,18.855,95.0,12.31,34.11
0.129,0.228,8.89,18.849,95.0,12.29,34.16
0.185,0.145,8.887,18.844,95.0,12.29,34.23
-0.066,0.249,8.887,18.844,95.0,12.28,34.36
-0.095,0.145,8.887,18.838,80.0,12.28,34.56
-0.102,0.186,8.886,18.829,80.0,12.28,34.82
-0.122,0.186,8.885,18.824,80.0,12.28,35.07
-0.141,0.145,8.885,18.819,80.0,12.29,35.28
-0.148,0.186,8.885,18.814,80.0,12.29,35.67
-0.149,0.145,8.882,18.809,80.0,12.29,36.06
-0.122,0.166,8.882,18.804,80.0,12.31,36.5
-0.121,0.207,8.88,18.796,80.0,12.31,36.83
-0.149,0.207,8.88,18.79,80.0,12.31,37.14
0.061,0.331,8.877,18.785,80.0,12.31,37.44
-0.072,0.166,8.877,18.78,80.0,12.31,37.73
0.046,0.166,8.876,18.776,80.0,12.31,37.96
0.188,0.186,8.875,18.771,65.0,12.29,38.1
-0.041,0.166,8.875,18.767,65.0,12.31,38.21
-0.111,0.145,8.872,18.764,65.0,12.31,38.26
-0.1,0.145,8.872,18.762,65.0,12.28,38.2
-0.108,0.186,8.87,18.76,65.0,12.29,37.98
-0.126,0.166,8.87,18.759,65.0,12.31,37.65
-0.117,0.186,8.87,18.762,65.0,12.31,37.44
-0.076,0.166,8.868,18.765,65.0,12.32,37.25
-0.132,0.166,8.867,18.758,65.0,12.31,37.11
0.154,0.352,8.867,18.751,65.0,12.29,36.93
-0.081,0.166,8.865,18.741,65.0,12.29,36.78
0.038,0.207,8.865,18.735,65.0,12.28,36.61
0.225,0.207,8.865,18.731,65.0,12.28,36.43
0.065,0.166,8.862,18.729,65.0,12.28,36.28
-0.089,0.186,8.862,18.727,75.0,12.28,36.11
-0.088,0.166,8.86,18.725,75.0,12.28,35.89
-0.083,0.145,8.86,18.721,75.0,12.29,35.72
-0.096,0.186,8.857,18.725,75.0,12.31,35.44
-0.105,0.186,8.857,18.724,75.0,12.29,35.19
-0.106,0.145,8.856,18.724,75.0,12.28,35.04
-0.099,0.166,8.856,18.72,75.0,12.28,34.95
-0.05,0.166,8.855,18.713,75.0,12.28,34.88
-0.102,0.186,8.853,18.708,75.0,12.29,34.82
0.2,0.435,8.852,18.704,75.0,12.29,34.83
-0.079,0.166,8.852,18.703,75.0,12.29,34.83
0.039,0.145,8.85,18.699,75.0,12.28,34.82
0.227,0.145,8.848,18.688,75.0,12.28,34.77
0.138,0.207,8.847,18.683,75.0,12.28,34.73
-0.065,0.166,8.846,18.68,65.0,12.31,34.72
-0.068,0.166,8.845,18.675,65.0,12.29,34.69
-0.07,0.207,8.843,18.67,65.0,12.29,34.67
-0.085,0.207,8.842,18.665,65.0,12.28,34.56
-0.096,0.166,8.842,18.66,65.0,12.28,34.4
-0.099,0.145,8.84,18.655,65.0,12.29,34.36
-0.059,0.228,8.84,18.65,65.0,12.29,34.44
-0.088,0.186,8.838,18.644,65.0,12.28,34.6
0.068,0.373,8.837,18.638,65.0,12.28,34.68
-0.001,0.249,8.836,18.633,65.0,12.28,34.8
-0.01,0.186,8.835,18.632,65.0,12.28,35.02
0.134,0.166,8.835,18.633,65.0,12.28,35.38
0.211,0.186,8.832,18.632,65.0,12.29,35.77
-0.064,0.186,8.832,18.633,65.0,12.29,36.11
-0.107,0.228,8.831,18.633,69.0,12.29,36.41
-0.095,0.186,8.83,18.632,69.0,12.28,36.69
-0.103,0.186,8.829,18.628,69.0,12.29,36.94
-0.115,0.166,8.828,18.623,69.0,12.29,37.15
-0.099,0.166,8.825,18.618,69.0,12.31,37.46
-0.057,0.207,8.824,18.613,69.0,12.29,37.82
-0.11,0.228,8.82,18.608,69.0,12.28,38.18
0.163,0.311,8.82,18.608,69.0,12.28,38.37
-0.027,0.104,8.82,18.613,69.0,12.28,38.46
0.101,0.166,8.819,18.621,69.0,12.28,38.46
0.304,0.186,8.818,18.626,69.0,12.28,38.42
0.122,0.228,8.815,18.634,69.0,12.28,38.34
-0.015,0.186,8.814,18.645,69.0,12.28,38.2
-0.006,0.228,8.811,18.658,74.0,12.28,37.96
-0.001,0.166,8.81,18.674,74.0,12.29,37.77
-0.014,0.207,8.808,18.692,74.0,12.31,37.49
0.012,0.186,8.806,18.714,74.0,12.31,37.24
0.006,0.228,8.804,18.733,74.0,12.28,37.01
0.0,0.249,8.803,18.763,74.0,12.29,36.83
0.212,0.311,8.8,18.791,74.0,12.29,36.67
0.063,0.186,8.8,18.818,74.0,12.31,36.49
0.186,0.186,8.8,18.846,74.0,12.31,36.3
0.335,0.124,8.798,18.862,74.0,12.32,36.08
0.055,0.207,8.798,18.872,74.0,12.32,35.86
-0.009,0.145,8.795,18.876,74.0,12.31,35.66
-0.002,0.145,8.795,18.872,80.0,12.31,35.43
-0.015,0.186,8.795,18.863,80.0,12.32,35.21
-0.032,0.124,8.795,18.855,80.0,12.29,34.86
-0.015,0.166,8.794,18.847,80.0,12.29,34.63
-0.014,0.145,8.793,18.84,80.0,12.29,34.51
-0.045,0.207,8.793,18.824,80.0,12.31,34.45
0.198,0.373,8.791,18.818,80.0,12.28,34.4
0.028,0.166,8.79,18.823,80.0,12.28,34.32
0.139,0.166,8.788,18.826,80.0,12.28,34.28
0.304,0.207,8.786,18.822,80.0,12.29,34.3
0.038,0.166,8.781,18.817,80.0,12.29,34.32
-0.037,0.186,8.775,18.812,76.0,12.29,34.27
-0.038,0.207,8.766,18.807,76.0,12.29,34.22
-0.052,0.207,8.763,18.797,76.0,12.28,34.23
-0.069,0.186,8.76,18.786,76.0,12.29,34.08
-0.047,0.145,8.759,18.78,76.0,12.29,33.96
-0.058,0.166,8.747,18.763,76.0,12.29,34.11
-0.07,0.207,8.746,18.762,76.0,12.29,34.13
0.136,0.331,8.743,18.753,76.0,12.31,34.25
-0.017,0.145,8.742,18.743,76.0,12.32,34.33
0.1,0.186,8.739,18.736,76.0,12.29,34.48
0.243,0.186,8.737,18.726,76.0,12.29,34.7
-0.029,0.166,8.729,18.716,76.0,12.28,35.01
-0.104,0.166,8.724,18.705,78.0,12.28,35.34
-0.105,0.104,8.719,18.693,78.0,12.28,35.64
-0.118,0.29,8.718,18.679,78.0,12.29,35.93
-0.095,0.186,8.716,18.669,78.0,12.29,36.09
-0.14,0.228,8.714,18.658,78.0,12.28,36.35
-0.012,0.249,8.713,18.649,78.0,12.28,36.66
-0.066,0.249,8.711,18.639,78.0,12.28,37.01
-0.049,0.166,8.708,18.63,78.0,12.28,37.25
0.105,0.186,8.707,18.628,78.0,12.28,37.46
0.188,0.207,8.706,18.621,78.0,12.28,37.64
-0.08,0.186,8.704,18.62,78.0,12.28,37.82
-0.111,0.145,8.701,18.614,85.0,12.28,37.93
-0.1,0.166,8.698,18.608,85.0,12.28,37.89
-0.107,0.166,8.696,18.606,85.0,12.28,37.68
-0.068,0.186,8.693,18.601,85.0,12.28,37.34
-0.125,0.228,8.691,18.593,85.0,12.28,37.09
0.172,0.29,8.689,18.584,85.0,12.28,36.87
-0.128,0.228,8.688,18.574,85.0,12.28,36.66
-0.005,0.249,8.686,18.566,85.0,12.28,36.42
0.165,0.352,8.683,18.565,85.0,12.28,36.18
0.16,0.249,8.683,18.565,85.0,12.28,35.94
-0.086,0.87,8.683,18.563,85.0,12.27,35.7
-0.089,0.684,8.683,18.561,85.0,12.27,35.47
-0.088,0.311,8.681,18.561,85.0,12.26,35.47
-0.099,0.269,8.679,18.56,85.0,12.25,35.5
-0.055,0.29,8.678,18.557,85.0,12.25,35.26
-0.113,0.559,8.678,18.56,85.0,12.25,35.05
0.16,0.663,8.677,18.553,85.0,12.26,34.91
-0.096,0.891,8.676,18.551,85.0,12.26,34.81
0.001,0.477,8.674,18.542,85.0,12.27,34.68
0.171,0.767,8.673,18.532,85.0,12.27,34.56
0.183,0.29,8.673,18.524,85.0,12.27,34.44
-0.069,0.994,8.673,18.516,84.0,12.27,34.35
-0.078,0.414,8.673,18.514,84.0,12.27,34.25
-0.078,0.829,8.673,18.511,84.0,12.27,34.2
-0.096,0.829,8.673,18.51,84.0,12.28,34.11
-0.081,0.352,8.673,18.509,84.0,12.28,33.95
-0.078,0.663,8.673,18.508,84.0,12.29,33.93
-0.129,0.311,8.674,18.508,84.0,12.29,33.96
0.137,0.725,8.673,18.506,84.0,12.28,33.99
-0.038,0.435,8.676,18.503,84.0,12.29,33.96
0.07,0.559,8.676,18.501,84.0,12.31,33.93
0.23,0.725,8.676,18.499,84.0,12.31,33.99
-0.023,0.435,8.676,18.499,84.0,12.31,34.08
-0.108,0.725,8.676,18.499,81.0,12.31,34.22
-0.109,0.352,8.673,18.494,81.0,12.31,34.43
-0.127,0.767,8.673,18.489,81.0,12.29,34.67
-0.146,0.518,8.672,18.482,81.0,12.28,34.78
-0.104,0.207,8.671,18.475,81.0,12.28,35.01
-0.17,0.331,8.671,18.469,81.0,12.28,35.35
0.109,0.456,8.671,18.464,81.0,12.28,35.78
-0.189,0.767,8.668,18.459,81.0,12.28,36.17
-0.043,0.352,8.668,18.453,81.0,12.28,36.48
0.137,0.559,8.668,18.449,80.0,12.29,36.75
0.072,0.228,8.668,18.444,80.0,12.31,37.0
-0.139,0.87,8.667,18.441,80.0,12.31,37.26
-0.14,0.311,8.666,18.437,80.0,12.29,37.55
-0.133,0.932,8.666,18.434,80.0,12.29,37.82
-0.12,0.622,8.666,18.431,80.0,12.29,37.9
-0.118,0.684,8.666,18.429,80.0,12.29,37.89
-0.166,0.684,8.666,18.426,80.0,12.29,37.78
0.112,0.435,8.666,18.424,80.0,12.29,37.63
-0.061,0.704,8.666,18.421,80.0,12.29,37.46
0.057,0.373,8.663,18.413,80.0,12.29,37.23
0.223,0.642,8.662,18.405,80.0,12.29,37.03
-0.029,0.932,8.661,18.395,80.0,12.29,36.83
-0.109,0.414,8.661,18.382,88.0,12.29,36.63
-0.097,0.787,8.661,18.37,88.0,12.29,36.4
-0.106,0.787,8.661,18.366,88.0,12.29,36.2
-0.121,0.352,8.661,18.366,88.0,12.28,35.87
-0.094,0.849,8.661,18.362,88.0,12.28,35.63
-0.094,0.849,8.661,18.359,88.0,12.28,35.46
-0.122,0.601,8.661,18.355,88.0,12.28,35.33
0.126,0.974,8.659,18.352,88.0,12.28,35.18
-0.033,0.746,8.658,18.365,88.0,12.29,35.02
0.08,0.435,8.658,18.368,88.0,12.28,34.91
0.243,0.746,8.658,18.368,88.0,12.28,34.8
-0.008,0.725,8.658,18.366,88.0,12.28,34.72
-0.082,0.518,8.656,18.362,77.0,12.28,34.63
-0.074,0.787,8.656,18.357,77.0,12.28,34.52
-0.082,0.477,8.656,18.352,77.0,12.28,34.41
-0.098,0.767,8.656,18.349,77.0,12.29,34.2
-0.081,0.932,8.654,18.345,77.0,12.28,34.06
-0.063,0.331,8.654,18.341,77.0,12.28,33.97
-0.123,0.849,8.651,18.337,77.0,12.28,33.93
0.152,0.767,8.651,18.341,77.0,12.28,33.93
-0.024,0.601,8.649,18.337,77.0,12.28,33.86
0.082,0.642,8.649,18.336,77.0,12.28,33.82
0.261,0.373,8.647,18.337,77.0,12.28,33.78
0.041,0.663,8.646,18.339,77.0,12.28,33.79
-0.067,0.394,8.646,18.339,76.0,12.28,33.78
-0.057,0.767,8.644,18.336,76.0,12.28,33.77
-0.065,0.435,8.642,18.331,76.0,12.28,33.82
-0.081,0.249,8.641,18.323,76.0,12.29,33.75
-0.078,0.725,8.641,18.316,76.0,12.29,33.75
-0.039,0.331,8.641,18.303,76.0,12.29,33.88
-0.102,0.849,8.639,18.293,76.0,12.29,34.15
0.179,0.539,8.639,18.283,76.0,12.29,34.44
-0.081,0.373,8.639,18.28,76.0,12.29,34.71
0.035,0.539,8.636,18.275,76.0,12.29,35.02
0.217,0.539,8.636,18.273,76.0,12.29,35.31
0.125,0.352,8.635,18.273,76.0,12.29,35.61
-0.074,0.808,8.634,18.272,75.0,12.29,35.92
-0.079,0.435,8.634,18.268,75.0,12.29,36.19
-0.082,0.87,8.634,18.279,75.0,12.28,36.43
-0.096,0.414,8.632,18.284,75.0,12.28,36.56
-0.068,0.891,8.631,18.29,75.0,12.28,36.67
-0.091,0.373,8.629,18.294,75.0,12.28,36.88
-0.05,0.725,8.629,18.296,75.0,12.28,37.09
0.069,0.787,8.627,18.296,75.0,12.28,37.23
-0.007,0.435,8.626,18.302,75.0,12.28,37.22
0.126,0.787,8.625,18.311,75.0,12.28,37.1
0.245,0.539,8.624,18.314,75.0,12.28,36.92
-0.022,0.601,8.624,18.311,75.0,12.28,36.75
-0.071,0.746,8.624,18.311,80.0,12.28,36.6
-0.063,0.622,8.624,18.312,80.0,12.28,36.42
-0.074,0.684,8.624,18.309,80.0,12.28,36.19
-0.081,0.622,8.621,18.306,80.0,12.28,35.87
-0.036,0.746,8.621,18.304,80.0,12.28,35.64
-0.096,0.373,8.621,18.3,80.0,12.29,35.45
0.198,0.684,8.619,18.296,80.0,12.28,35.3
-0.079,0.539,8.619,18.292,80.0,12.28,35.16
0.043,0.725,8.619,18.29,80.0,12.28,35.02
0.228,0.58,8.619,18.286,80.0,12.28,34.9
0.151,0.518,8.616,18.28,80.0,12.28,34.83
-0.057,0.829,8.616,18.276,80.0,12.28,34.75
-0.054,0.808,8.614,18.277,80.0,12.28,34.63
-0.058,0.373,8.614,18.282,80.0,12.28,34.51
-0.074,0.829,8.614,18.286,80.0,12.28,34.33
-0.049,0.352,8.611,18.282,80.0,12.28,34.12
-0.067,0.891,8.609,18.28,80.0,12.28,34.02
-0.065,0.373,8.606,18.275,80.0,12.28,33.98
0.126,0.663,8.602,18.272,80.0,12.28,33.97
0.098,0.269,8.6,18.272,80.0,12.28,33.94
0.165,0.269,8.599,18.276,80.0,12.28,33.95
0.26,0.207,8.597,18.288,80.0,12.29,33.91
-0.003,0.414,8.599,18.301,80.0,12.29,33.84
-0.067,0.166,8.596,18.307,80.0,12.31,33.84
-0.062,0.186,8.591,18.326,80.0,12.28,33.81
-0.079,0.311,8.591,18.326,80.0,12.28,33.8
-0.071,0.186,8.585,18.327,80.0,12.27,33.62
-0.071,0.249,8.584,18.322,80.0,12.28,33.57
-0.131,0.186,8.582,18.325,80.0,12.28,33.65
0.124,0.311,8.579,18.34,80.0,12.28,33.94
-0.049,0.145,8.572,18.35,80.0,12.29,34.28
0.059,0.166,8.568,18.352,80.0,12.29,34.71
0.224,0.186,8.565,18.352,80.0,12.29,35.12
-0.022,0.186,8.565,18.351,80.0,12.29,35.45
-0.116,0.145,8.573,18.352,83.0,12.29,35.72
-0.11,0.207,8.579,18.352,83.0,12.29,36.08
-0.103,0.166,8.577,18.34,83.0,12.31,36.42
-0.096,0.145,8.572,18.33,83.0,12.29,36.61
-0.159,0.186,8.568,18.311,83.0,12.31,36.82
0.073,0.29,8.561,18.288,83.0,12.31,37.11
-0.07,0.124,8.551,18.288,83.0,12.29,37.43
0.057,0.124,8.545,18.296,83.0,12.29,37.6
0.245,0.124,8.542,18.297,83.0,12.29,37.65
0.023,0.104,8.54,18.295,83.0,12.29,37.65
-0.085,0.145,8.539,18.29,91.0,12.29,37.56
-0.074,0.145,8.537,18.286,91.0,12.29,37.33
-0.079,0.145,8.535,18.282,91.0,12.29,37.11
-0.037,0.166,8.534,18.278,91.0,12.31,36.8
-0.103,0.124,8.534,18.273,91.0,12.29,36.55
0.205,0.331,8.532,18.265,91.0,12.29,36.35
-0.108,0.207,8.53,18.26,91.0,12.31,36.18
0.029,0.145,8.529,18.257,91.0,12.29,35.99
0.209,0.124,8.529,18.253,91.0,12.29,35.74
0.171,0.166,8.527,18.25,91.0,12.29,35.42
-0.049,0.124,8.524,18.243,91.0,12.29,35.14
-0.052,0.186,8.52,18.239,89.0,12.29,34.96
-0.059,0.145,8.515,18.237,89.0,12.29,34.85
-0.034,0.145,8.513,18.237,89.0,12.29,34.67
-0.069,0.145,8.512,18.234,89.0,12.29,34.39
-0.045,0.207,8.51,18.234,89.0,12.29,34.26
0.141,0.394,8.51,18.234,89.0,12.29,34.23
0.002,0.124,8.514,18.237,89.0,12.29,34.24
0.129,0.166,8.513,18.24,89.0,12.31,34.18
0.253,0.104,8.508,18.245,89.0,12.31,34.14
-0.015,0.186,8.505,18.253,89.0,12.31,34.14
-0.064,0.124,8.5,18.261,89.0,12.31,34.14
-0.059,0.145,8.497,18.271,89.0,12.31,34.1
-0.074,0.145,8.493,18.281,89.0,12.31,34.07
-0.035,0.124,8.49,18.291,89.0,12.31,33.95
-0.096,0.145,8.487,18.301,89.0,12.31,33.87
0.162,0.352,8.484,18.311,89.0,12.31,33.88
-0.072,0.228,8.484,18.321,89.0,12.31,34.02
0.005,0.249,8.484,18.331,89.0,12.31,34.18
0.162,0.145,8.484,18.34,89.0,12.31,34.3
0.179,0.124,8.482,18.348,89.0,12.31,34.45
-0.068,0.166,8.48,18.361,89.0,12.31,34.7
-0.089,0.166,8.478,18.37,86.0,12.31,34.97
-0.093,0.145,8.477,18.38,86.0,12.31,35.31
-0.084,0.166,8.475,18.387,86.0,12.31,35.56
-0.1,0.145,8.475,18.382,86.0,12.31,35.74
-0.144,0.228,8.472,18.382,86.0,12.31,36.05
0.086,0.331,8.471,18.387,86.0,12.29,36.37
-0.06,0.228,8.47,18.394,86.0,12.29,36.76
0.062,0.331,8.468,18.397,86.0,12.29,37.02
0.218,0.145,8.467,18.398,86.0,12.31,37.27
-0.017,0.207,8.466,18.396,86.0,12.29,37.5
-0.095,0.166,8.465,18.394,89.0,12.29,37.74
-0.09,0.249,8.465,18.392,89.0,12.29,37.89
-0.103,0.124,8.465,18.387,89.0,12.29,37.88
-0.066,0.559,8.465,18.384,89.0,12.29,37.63
-0.137,0.29,8.462,18.382,89.0,12.29,37.44
0.164,0.456,8.462,18.377,89.0,12.28,37.21
-0.15,0.331,8.461,18.368,89.0,12.29,36.97
-0.003,0.124,8.46,18.358,89.0,12.29,36.71
0.169,0.166,8.46,18.348,89.0,12.29,36.51
0.108,0.145,8.457,18.338,89.0,12.29,36.31
-0.102,0.29,8.457,18.328,88.0,12.29,36.11
-0.103,0.166,8.457,18.318,88.0,12.29,35.93
-0.109,0.269,8.455,18.308,88.0,12.29,35.78
-0.122,0.166,8.453,18.298,88.0,12.29,35.48
-0.078,0.186,8.452,18.288,88.0,12.29,35.23
-0.144,0.166,8.451,18.28,88.0,12.29,35.13
0.164,0.435,8.45,18.275,88.0,12.29,35.08
-0.134,0.186,8.447,18.266,88.0,12.28,35.04
0.003,0.269,8.447,18.26,88.0,12.27,35.0
0.186,0.124,8.447,18.255,88.0,12.28,34.97
0.124,0.124,8.445,18.249,88.0,12.29,34.93
-0.072,0.104,8.445,18.247,84.0,12.29,34.87
-0.067,0.145,8.445,18.247,84.0,12.29,34.81
-0.072,0.124,8.442,18.249,84.0,12.29,34.81
-0.084,0.124,8.442,18.258,84.0,12.29,34.7
-0.087,0.145,8.442,18.27,84.0,12.29,34.58
-0.1,0.124,8.441,18.289,84.0,12.29,34.54
0.196,0.311,8.44,18.309,84.0,12.29,34.58
-0.097,0.207,8.44,18.332,84.0,12.29,34.64
0.023,0.104,8.438,18.359,84.0,12.28,34.61
0.181,0.145,8.437,18.418,84.0,12.28,34.69
0.184,0.166,8.437,18.422,84.0,12.28,34.71
-0.054,0.104,8.437,18.445,84.0,12.29,34.83
-0.071,0.124,8.437,18.465,83.0,12.31,34.97
-0.074,0.166,8.438,18.486,83.0,12.31,35.17
-0.076,0.124,8.437,18.508,83.0,12.31,35.36
-0.07,0.166,8.436,18.526,83.0,12.29,35.53
-0.146,0.166,8.435,18.537,83.0,12.28,35.83
0.107,0.29,8.435,18.546,83.0,12.28,36.16
-0.079,0.104,8.435,18.55,83.0,12.29,36.51
0.031,0.104,8.435,18.55,83.0,12.29,36.81
0.199,0.104,8.437,18.553,83.0,12.31,37.12
-0.002,0.124,8.437,18.557,83.0,12.31,37.44
-0.118,0.124,8.437,18.557,88.0,12.31,37.77
-0.107,0.124,8.437,18.557,88.0,12.29,38.06
-0.105,0.104,8.44,18.553,88.0,12.29,38.28
-0.078,0.124,8.44,18.546,88.0,12.31,38.32
-0.147,0.622,8.442,18.537,88.0,12.32,38.27
0.151,0.311,8.442,18.53,88.0,12.32,38.11
-0.12,0.145,8.445,18.52,88.0,12.33,38.0
0.011,0.104,8.445,18.51,88.0,12.33,37.84
0.195,0.166,8.445,18.501,88.0,12.31,37.59
0.08,0.145,8.447,18.492,88.0,12.31,37.32
-0.082,0.124,8.447,18.484,90.0,12.32,37.26
-0.081,0.124,8.447,18.476,90.0,12.32,37.06
-0.082,0.124,8.447,18.465,90.0,12.31,36.77
-0.083,0.373,8.45,18.452,90.0,12.28,36.33
-0.056,0.104,8.447,18.443,90.0,12.29,36.0
-0.122,0.124,8.447,18.424,90.0,12.29,35.73
0.175,0.311,8.447,18.422,90.0,12.29,35.7
-0.045,0.124,8.447,18.412,90.0,12.29,35.57
0.057,0.124,8.447,18.403,90.0,12.28,35.65
0.07,0.124,8.447,18.393,90.0,12.28,36.17
0.015,0.104,8.447,18.383,85.0,12.28,36.17
-0.06,0.145,8.447,18.374,85.0,12.28,36.12
-0.047,0.104,8.447,18.363,85.0,12.28,35.93
-0.055,0.124,8.447,18.356,85.0,12.28,35.71
-0.043,0.124,8.447,18.34,85.0,12.28,35.08
-0.039,0.186,8.447,18.34,85.0,12.28,35.04
-0.105,0.166,8.447,18.332,85.0,12.28,34.91
0.191,0.331,8.446,18.325,85.0,12.28,34.92
-0.004,0.104,8.443,18.318,85.0,12.28,34.98
0.1,0.104,8.441,18.311,85.0,12.28,34.95
0.276,0.145,8.438,18.305,85.0,12.28,34.88
0.045,0.124,8.437,18.298,85.0,12.27,34.81
-0.054,0.145,8.437,18.292,85.0,12.28,34.81
-0.046,0.145,8.435,18.287,85.0,12.28,34.81
-0.062,0.124,8.433,18.282,85.0,12.28,34.8
-0.084,0.124,8.431,18.277,85.0,12.28,34.66
-0.038,0.124,8.428,18.273,85.0,12.28,34.61
-0.105,0.145,8.426,18.265,85.0,12.28,34.69
0.18,0.311,8.423,18.26,85.0,12.28,34.91
-0.126,0.186,8.422,18.255,85.0,12.28,35.15
-0.007,0.104,8.42,18.25,85.0,12.28,35.4
0.152,0.124,8.417,18.243,85.0,12.28,35.69
0.128,0.124,8.416,18.238,85.0,12.28,36.03
-0.104,0.145,8.415,18.233,81.0,12.27,36.4
-0.12,0.104,8.413,18.228,81.0,12.27,36.7
-0.125,0.124,8.412,18.223,81.0,12.27,37.0
-0.129,0.124,8.412,18.216,81.0,12.27,37.19
-0.117,0.166,8.41,18.21,81.0,12.27,37.41
-0.184,0.166,8.408,18.205,81.0,12.27,37.68
0.071,0.269,8.407,18.2,81.0,12.27,37.99
-0.11,0.124,8.405,18.198,81.0,12.27,38.18
0.009,0.124,8.405,18.193,81.0,12.27,38.22
0.19,0.145,8.402,18.188,87.0,12.27,38.09
-0.003,0.145,8.401,18.186,87.0,12.27,37.89
-0.112,0.124,8.4,18.182,87.0,12.27,37.7
-0.103,0.124,8.4,18.178,87.0,12.27,37.48
-0.105,0.124,8.398,18.176,87.0,12.27,37.27
-0.118,0.124,8.397,18.172,87.0,12.27,36.94
-0.069,0.166,8.397,18.17,87.0,12.27,36.62
-0.127,0.145,8.396,18.166,87.0,12.27,36.37
0.183,0.352,8.395,18.163,87.0,12.27,36.17
-0.132,0.186,8.395,18.161,87.0,12.28,35.97
-0.001,0.186,8.395,18.157,87.0,12.28,35.75
0.17,0.124,8.395,18.153,87.0,12.28,35.55
0.146,0.166,8.393,18.148,87.0,12.28,35.36
-0.079,0.166,8.392,18.146,81.0,12.27,35.19
-0.079,0.145,8.392,18.143,81.0,12.28,35.06
-0.08,0.145,8.392,18.141,81.0,12.28,34.97
-0.096,0.166,8.39,18.137,81.0,12.28,34.81
-0.082,0.124,8.389,18.133,81.0,12.28,34.59
-0.062,0.166,8.388,18.131,81.0,12.28,34.53
-0.127,0.145,8.385,18.128,81.0,12.28,34.52
0.159,0.311,8.384,18.125,81.0,12.28,34.53
-0.036,0.145,8.383,18.123,81.0,12.28,34.52
0.065,0.124,8.383,18.118,81.0,12.29,34.52
0.25,0.124,8.383,18.116,81.0,12.28,34.55
0.05,0.124,8.38,18.112,81.0,12.27,34.55
-0.069,0.124,8.38,18.11,80.0,12.27,34.52
-0.058,0.145,8.38,18.106,80.0,12.27,34.49
-0.067,0.124,8.38,18.103,80.0,12.27,34.49
-0.085,0.145,8.379,18.101,80.0,12.27,34.36
-0.064,0.145,8.378,18.096,80.0,12.28,34.27
-0.042,0.145,8.378,18.093,80.0,12.28,34.26
-0.107,0.145,8.376,18.089,80.0,12.28,34.3
0.17,0.352,8.375,18.086,80.0,12.28,34.33
-0.02,0.124,8.375,18.084,80.0,12.28,34.35
0.076,0.145,8.375,18.08,80.0,12.29,34.41
0.25,0.124,8.375,18.076,80.0,12.29,34.52
0.051,0.104,8.373,18.074,80.0,12.29,34.68
-0.073,0.145,8.374,18.071,77.0,12.29,34.91
-0.064,0.124,8.375,18.069,77.0,12.29,35.16
-0.079,0.145,8.375,18.066,77.0,12.29,35.45
-0.098,0.145,8.375,18.064,77.0,12.31,35.56
-0.061,0.166,8.375,18.061,77.0,12.31,35.78
-0.097,0.124,8.375,18.058,77.0,12.29,36.07
0.003,0.228,8.374,18.055,77.0,12.31,36.38
0.003,0.249,8.373,18.054,77.0,12.31,36.62
-0.006,0.104,8.373,18.051,77.0,12.29,36.82
0.131,0.124,8.373,18.049,77.0,12.28,37.02
0.228,0.145,8.373,18.046,77.0,12.28,37.2
-0.026,0.145,8.373,18.045,77.0,12.28,37.34
-0.06,0.104,8.373,18.043,80.0,12.28,37.41
-0.046,0.124,8.373,18.041,80.0,12.28,37.39
-0.062,0.166,8.371,18.04,80.0,12.28,37.22
-0.059,0.124,8.37,18.039,80.0,12.28,36.91
-0.028,0.145,8.37,18.036,80.0,12.28,36.67
-0.092,0.186,8.37,18.033,80.0,12.28,36.5
0.19,0.373,8.369,18.031,80.0,12.28,36.34
-0.018,0.124,8.368,18.03,80.0,12.28,36.14
0.086,0.186,8.368,18.028,80.0,12.29,35.92
0.267,0.124,8.368,18.025,80.0,12.28,35.73
0.094,0.186,8.368,18.024,80.0,12.28,35.54
-0.046,0.145,8.368,18.021,80.0,12.28,35.44
-0.037,0.124,8.368,18.019,80.0,12.28,35.44
-0.048,0.124,8.368,18.018,80.0,12.29,35.44
-0.058,0.124,8.368,18.014,80.0,12.28,35.26
-0.019,0.145,8.368,18.011,80.0,12.26,35.09
-0.049,0.145,8.368,18.009,80.0,12.26,35.12
0.034,0.311,8.368,18.006,80.0,12.27,35.26
0.096,0.29,8.368,18.003,80.0,12.28,35.29
0.037,0.145,8.368,18.002,80.0,12.28,35.19
0.175,0.145,8.368,17.999,80.0,12.27,35.09
0.279,0.124,8.368,17.997,80.0,12.28,35.03
0.017,0.186,8.365,17.996,80.0,12.28,34.96
-0.02,0.104,8.365,17.993,80.0,12.28,34.88
-0.015,0.145,8.365,17.991,80.0,12.28,34.78
-0.031,0.104,8.363,17.988,80.0,12.29,34.7
-0.035,0.186,8.363,17.986,80.0,12.29,34.49
0.006,0.124,8.359,17.982,80.0,12.29,34.36
-0.057,0.186,8.359,17.981,80.0,12.29,34.32
0.218,0.311,8.356,17.978,80.0,12.28,34.38
-0.033,0.207,8.355,17.977,80.0,12.28,34.45
0.08,0.124,8.355,17.974,80.0,12.28,34.52
0.254,0.166,8.355,17.971,80.0,12.29,34.62
0.157,0.145,8.354,17.968,80.0,12.29,34.81
-0.038,0.166,8.353,17.966,80.0,12.29,35.06
-0.042,0.145,8.35,17.963,80.0,12.29,35.3
-0.052,0.166,8.35,17.962,80.0,12.29,35.56
-0.066,0.186,8.349,17.958,80.0,12.29,35.69
-0.036,0.124,8.35,17.957,80.0,12.29,35.86
-0.105,0.166,8.348,17.953,80.0,12.28,36.13
0.126,0.29,8.348,17.951,80.0,12.28,36.45
-0.069,0.186,8.346,17.949,80.0,12.28,36.73
0.057,0.124,8.345,17.948,80.0,12.27,36.93
0.239,0.145,8.344,17.946,80.0,12.27,37.14
0.097,0.145,8.343,17.943,80.0,12.28,37.36
-0.075,0.124,8.343,17.939,85.0,12.28,37.56
-0.067,0.166,8.34,17.938,85.0,12.28,37.76
-0.071,0.124,8.338,17.936,85.0,12.28,37.96
-0.034,0.186,8.334,17.933,85.0,12.28,37.99
-0.086,0.145,8.33,17.931,85.0,12.28,38.0
0.198,0.29,8.328,17.927,85.0,12.27,38.0
-0.098,0.228,8.325,17.926,85.0,12.27,37.93
0.041,0.124,8.324,17.927,85.0,12.27,37.75
0.208,0.145,8.321,17.928,85.0,12.28,37.51
0.206,0.145,8.316,17.926,85.0,12.27,37.28
-0.026,0.145,8.314,17.922,85.0,12.27,37.09
-0.027,0.145,8.31,17.92,89.0,12.27,36.86
-0.021,0.124,8.309,17.917,89.0,12.27,36.62
-0.024,0.166,8.306,17.914,89.0,12.27,36.31
0.014,0.186,8.305,17.912,89.0,12.27,35.94
-0.051,0.166,8.304,17.907,89.0,12.27,35.67
0.231,0.394,8.303,17.905,89.0,12.27,35.5
-0.001,0.186,8.303,17.902,89.0,12.27,35.37
0.104,0.145,8.302,17.901,89.0,12.27,35.21
0.289,0.145,8.301,17.899,89.0,12.27,35.05
0.151,0.186,8.299,17.895,89.0,12.27,34.88
-0.022,0.186,8.298,17.892,86.0,12.27,34.75
-0.015,0.124,8.296,17.89,86.0,12.27,34.61
-0.026,0.186,8.293,17.889,86.0,12.27,34.52
-0.028,0.124,8.293,17.886,86.0,12.28,34.33
0.0,0.145,8.291,17.885,86.0,12.28,34.13
-0.07,0.166,8.289,17.882,86.0,12.28,34.05
0.205,0.394,8.288,17.88,86.0,12.28,34.04
0.008,0.186,8.288,17.879,86.0,12.28,34.03
0.114,0.145,8.287,17.877,86.0,12.28,33.99
0.301,0.166,8.286,17.875,86.0,12.28,33.97
0.128,0.145,8.286,17.872,86.0,12.28,33.95
-0.017,0.145,8.283,17.871,85.0,12.28,33.97
-0.012,0.145,8.283,17.869,85.0,12.28,33.95
-0.026,0.186,8.281,17.866,85.0,12.28,34.01
-0.033,0.166,8.281,17.865,85.0,12.27,33.99
-0.006,0.166,8.279,17.862,85.0,12.28,34.04
-0.077,0.186,8.278,17.86,85.0,12.27,34.28
0.189,0.331,8.278,17.859,85.0,12.27,34.68
-0.026,0.186,8.277,17.856,85.0,12.27,35.03
0.074,0.124,8.276,17.854,85.0,12.28,35.34
0.248,0.145,8.274,17.852,85.0,12.28,35.68
0.076,0.166,8.273,17.851,85.0,12.28,36.02
-0.074,0.145,8.273,17.85,84.0,12.28,36.33
-0.075,0.166,8.273,17.849,84.0,12.28,36.66
-0.072,0.166,8.271,17.846,84.0,12.29,37.02
-0.068,0.124,8.269,17.845,84.0,12.29,37.22
-0.142,0.186,8.268,17.842,84.0,12.28,37.43
0.096,0.269,8.268,17.841,84.0,12.28,37.68
-0.07,0.145,8.266,17.839,84.0,12.28,38.0
0.054,0.145,8.264,17.836,84.0,12.28,38.22
0.23,0.145,8.263,17.834,84.0,12.28,38.33
0.023,0.124,8.261,17.833,84.0,12.28,38.33
-0.093,0.145,8.261,17.83,94.0,12.28,38.23
-0.078,0.145,8.258,17.829,94.0,12.28,38.05
-0.078,0.186,8.258,17.829,94.0,12.29,37.84
-0.048,0.186,8.258,17.828,94.0,12.29,37.52
-0.12,0.186,8.256,17.827,94.0,12.28,37.24
0.168,0.352,8.256,17.827,94.0,12.28,37.02
-0.067,0.228,8.254,17.828,94.0,12.28,36.86
0.045,0.145,8.253,17.834,94.0,12.28,36.73
0.238,0.166,8.252,17.845,94.0,12.28,36.56
0.081,0.145,8.251,17.862,94.0,12.28,36.37
-0.076,0.186,8.251,17.891,90.0,12.28,36.12
-0.066,0.124,8.248,17.93,90.0,12.29,35.84
-0.065,0.145,8.248,17.979,90.0,12.31,35.6
-0.028,0.145,8.246,18.039,90.0,12.31,35.25
-0.102,0.166,8.246,18.111,90.0,12.31,34.94
0.203,0.477,8.246,18.189,90.0,12.32,34.75
-0.078,0.186,8.244,18.274,90.0,12.32,34.66
0.031,0.166,8.243,18.361,90.0,12.32,34.6
0.215,0.166,8.243,18.453,90.0,12.32,34.52
0.123,0.145,8.244,18.542,90.0,12.29,34.45
-0.08,0.124,8.247,18.628,91.0,12.28,34.41
-0.074,0.186,8.251,18.709,91.0,12.28,34.37
-0.077,0.166,8.255,18.781,91.0,12.28,34.32
-0.043,0.207,8.263,18.846,91.0,12.28,34.2
-0.097,0.145,8.273,18.904,91.0,12.28,34.05
0.059,0.311,8.287,18.954,91.0,12.28,34.03
0.0,0.249,8.3,18.996,91.0,12.28,34.07
0.0,0.166,8.318,19.031,91.0,12.28,34.1
0.146,0.166,8.339,19.06,91.0,12.27,34.05
0.2,0.166,8.361,19.082,91.0,12.27,33.9
-0.068,0.124,8.389,19.096,90.0,12.27,33.74
-0.093,0.166,8.416,19.105,90.0,12.27,33.8
-0.097,0.145,8.446,19.107,90.0,12.27,34.02
-0.116,0.124,8.477,19.101,90.0,12.27,34.21
-0.081,0.166,8.509,19.091,90.0,12.27,34.25
-0.127,0.145,8.541,19.073,90.0,12.27,34.52
0.0,0.352,8.575,19.048,90.0,12.27,34.91
-0.045,0.228,8.607,19.023,90.0,12.27,35.3
-0.045,0.145,8.641,18.994,90.0,12.27,35.61
0.098,0.186,8.67,18.967,84.0,12.27,35.9
0.163,0.145,8.702,18.936,84.0,12.27,36.22
-0.101,0.166,8.73,18.902,84.0,12.27,36.55
-0.133,0.166,8.756,18.87,84.0,12.27,36.84
-0.124,0.145,8.781,18.837,84.0,12.27,37.11
-0.139,0.166,8.806,18.804,84.0,12.27,37.28
-0.134,0.124,8.829,18.773,84.0,12.27,37.39
-0.103,0.166,8.85,18.742,84.0,12.27,37.59
-0.16,0.186,8.868,18.711,84.0,12.27,37.79
0.104,0.249,8.886,18.681,84.0,12.27,37.94
-0.098,0.186,8.903,18.653,84.0,12.27,37.92
0.025,0.124,8.918,18.626,84.0,12.27,37.8
0.215,0.124,8.93,18.598,84.0,12.27,37.61
0.047,0.207,8.941,18.573,84.0,12.27,37.43
-0.095,0.145,8.951,18.551,80.0,12.27,37.26
-0.084,0.124,8.959,18.528,80.0,12.27,37.09
-0.084,0.166,8.968,18.505,80.0,12.27,36.92
-0.099,0.186,8.975,18.485,80.0,12.27,36.61
-0.104,0.145,8.98,18.465,80.0,12.27,36.34
-0.102,0.186,8.984,18.446,80.0,12.27,36.17
-0.1,0.145,8.987,18.428,80.0,12.27,36.05
-0.06,0.145,8.987,18.412,80.0,12.27,35.92
-0.076,0.166,8.987,18.396,80.0,12.27,35.79
-0.026,0.228,8.987,18.378,80.0,12.27,35.77
0.125,0.331,8.984,18.362,80.0,12.27,35.68
0.006,0.166,8.982,18.35,80.0,12.27,35.53
0.135,0.145,8.978,18.335,80.0,12.27,35.39
0.276,0.166,8.973,18.322,80.0,12.28,35.31
0.002,0.166,8.968,18.31,80.0,12.28,35.26
-0.058,0.124,8.961,18.296,63.0,12.28,35.23
-0.052,0.145,8.955,18.285,63.0,12.28,35.18
-0.065,0.145,8.948,18.274,63.0,12.28,35.09
-0.08,0.145,8.941,18.264,63.0,12.27,34.88
-0.088,0.145,8.935,18.254,63.0,12.27,34.78
-0.087,0.145,8.926,18.244,63.0,12.27,34.77
-0.086,0.104,8.919,18.236,63.0,12.27,34.84
-0.085,0.124,8.909,18.229,63.0,12.27,34.85
-0.038,0.228,8.899,18.221,63.0,12.27,34.79
-0.072,0.186,8.888,18.213,63.0,12.27,34.77
0.205,0.311,8.877,18.204,63.0,12.28,34.78
-0.067,0.269,8.868,18.196,63.0,12.28,34.81
0.031,0.186,8.859,18.189,63.0,12.27,34.78
0.189,0.124,8.849,18.182,63.0,12.27,34.77
0.233,0.166,8.842,18.173,63.0,12.27,34.8
-0.044,0.145,8.833,18.167,63.0,12.28,34.91
-0.074,0.145,8.825,18.159,59.0,12.28,35.04
-0.075,0.186,8.819,18.152,59.0,12.28,35.21
-0.091,0.166,8.811,18.146,59.0,12.27,35.27
-0.107,0.166,8.802,18.141,59.0,12.27,35.32
-0.114,0.166,8.794,18.133,59.0,12.28,35.58
-0.118,0.145,8.785,18.126,59.0,12.31,35.9
-0.111,0.166,8.776,18.121,59.0,12.28,36.2
-0.088,0.186,8.769,18.113,59.0,12.28,36.42
-0.127,0.269,8.76,18.107,59.0,12.27,36.66
0.142,0.29,8.752,18.101,59.0,12.26,36.91
-0.069,0.186,8.744,18.096,59.0,12.26,37.13
0.047,0.145,8.737,18.09,59.0,12.27,37.36
0.246,0.207,8.73,18.084,59.0,12.27,37.58
0.086,0.145,8.723,18.079,59.0,12.27,37.79
-0.086,0.166,8.715,18.074,63.0,12.27,37.94
-0.084,0.186,8.709,18.069,63.0,12.27,38.05
-0.073,0.145,8.702,18.064,63.0,12.28,38.08
-0.085,0.166,8.694,18.059,63.0,12.28,37.83
-0.087,0.166,8.689,18.054,63.0,12.27,37.52
-0.087,0.166,8.684,18.051,63.0,12.27,37.3
-0.078,0.207,8.677,18.046,63.0,12.27,37.2
-0.034,0.145,8.672,18.041,63.0,12.28,37.12
-0.08,0.186,8.667,18.039,63.0,12.28,37.0
0.214,0.435,8.662,18.034,63.0,12.27,36.82
-0.042,0.166,8.657,18.03,63.0,12.27,36.67
0.077,0.249,8.652,18.026,63.0,12.28,36.51
0.274,0.145,8.647,18.021,63.0,12.28,36.39
0.167,0.145,8.644,18.019,63.0,12.28,36.32
-0.043,0.207,8.64,18.015,65.0,12.28,36.25
-0.042,0.166,8.636,18.011,65.0,12.28,36.15
-0.035,0.186,8.632,18.007,65.0,12.28,36.08
-0.049,0.124,8.627,18.004,65.0,12.28,35.87
-0.057,0.124,8.625,18.001,65.0,12.28,35.66
-0.058,0.166,8.62,17.996,65.0,12.28,35.53
-0.039,0.124,8.615,17.992,65.0,12.28,35.44
-0.008,0.207,8.61,17.989,65.0,12.27,35.4
-0.067,0.249,8.607,17.984,65.0,12.28,35.34
0.217,0.311,8.604,17.982,65.0,12.28,35.26
0.021,0.166,8.6,17.979,65.0,12.28,35.18
0.124,0.124,8.597,17.974,65.0,12.28,35.11
0.323,0.166,8.594,17.971,65.0,12.27,35.05
0.108,0.145,8.591,17.967,65.0,12.28,35.03
-0.032,0.124,8.587,17.964,67.0,12.27,35.0
-0.028,0.145,8.585,17.961,67.0,12.27,34.92
-0.032,0.145,8.581,17.957,67.0,12.27,34.86
-0.049,0.186,8.577,17.954,67.0,12.27,34.68
-0.056,0.124,8.575,17.951,67.0,12.27,34.54
-0.058,0.186,8.572,17.947,67.0,12.27,34.5
-0.007,0.166,8.569,17.943,67.0,12.27,34.51
-0.055,0.207,8.567,17.941,67.0,12.27,34.53
0.237,0.269,8.563,17.937,67.0,12.27,34.5
-0.076,0.207,8.56,17.934,67.0,12.27,34.49
0.055,0.166,8.558,17.929,67.0,12.27,34.49
0.225,0.145,8.555,17.927,67.0,12.27,34.49
0.232,0.124,8.553,17.924,67.0,12.27,34.5
-0.035,0.124,8.55,17.921,67.0,12.27,34.57
-0.055,0.166,8.548,17.919,69.0,12.27,34.66
-0.062,0.207,8.545,17.916,69.0,12.27,34.79
-0.079,0.166,8.544,17.912,69.0,12.27,34.86
-0.091,0.186,8.54,17.91,69.0,12.27,34.9
-0.079,0.104,8.538,17.906,69.0,12.27,35.1
-0.068,0.145,8.535,17.904,69.0,12.27,35.41
-0.115,0.269,8.532,17.901,69.0,12.27,35.75
0.126,0.311,8.53,17.899,69.0,12.27,36.01
-0.035,0.186,8.527,17.895,69.0,12.27,36.25
0.073,0.145,8.524,17.892,69.0,12.27,36.5
0.248,0.145,8.522,17.889,69.0,12.27,36.75
0.009,0.166,8.519,17.886,69.0,12.26,37.0
-0.099,0.145,8.517,17.884,74.0,12.27,37.25
-0.094,0.228,8.514,17.881,74.0,12.27,37.46
-0.101,0.186,8.513,17.879,74.0,12.26,37.63
-0.093,0.186,8.51,17.877,74.0,12.27,37.69
-0.081,0.124,8.508,17.874,74.0,12.27,37.79
-0.138,0.228,8.504,17.871,74.0,12.27,37.93
0.126,0.249,8.503,17.869,74.0,12.27,38.02
-0.041,0.166,8.5,17.866,74.0,12.27,37.95
0.074,0.166,8.498,17.866,74.0,12.27,37.78
0.261,0.186,8.495,17.866,74.0,12.27,37.58
0.027,0.166,8.493,17.862,74.0,12.27,37.39
-0.08,0.124,8.49,17.86,84.0,12.27,37.23
-0.068,0.207,8.489,17.857,84.0,12.27,37.07
-0.077,0.166,8.487,17.855,84.0,12.27,36.92
-0.086,0.166,8.484,17.852,84.0,12.27,36.62
-0.037,0.207,8.483,17.851,84.0,12.27,36.38
-0.094,0.207,8.482,17.849,84.0,12.27,36.21
0.209,0.311,8.48,17.846,84.0,12.27,36.07
-0.088,0.207,8.477,17.844,84.0,12.27,35.91
0.041,0.145,8.475,17.842,84.0,12.27,35.75
0.22,0.166,8.473,17.84,84.0,12.27,35.6
0.179,0.166,8.471,17.837,84.0,12.27,35.45
-0.052,0.145,8.47,17.835,80.0,12.27,35.33
-0.05,0.145,8.467,17.834,80.0,12.27,35.21
-0.053,0.186,8.465,17.832,80.0,12.27,35.13
-0.068,0.145,8.462,17.829,80.0,12.27,34.94
-0.022,0.166,8.462,17.828,80.0,12.27,34.73
-0.076,0.145,8.46,17.827,80.0,12.27,34.65
0.191,0.269,8.457,17.824,80.0,12.27,34.63
-0.073,0.166,8.456,17.822,80.0,12.27,34.62
0.034,0.186,8.453,17.819,80.0,12.27,34.59
0.194,0.166,8.452,17.818,80.0,12.27,34.54
0.239,0.124,8.45,17.815,80.0,12.27,34.55
-0.028,0.145,8.447,17.813,80.0,12.27,34.55
-0.046,0.145,8.447,17.812,83.0,12.27,34.54
-0.045,0.145,8.445,17.81,83.0,12.27,34.52
-0.065,0.166,8.445,17.809,83.0,12.27,34.47
-0.035,0.207,8.442,17.807,83.0,12.27,34.34
-0.063,0.228,8.441,17.804,83.0,12.27,34.29
-0.001,0.331,8.44,17.802,83.0,12.27,34.35
0.078,0.269,8.437,17.799,83.0,12.27,34.51
0.0,0.145,8.435,17.797,83.0,12.27,34.61
0.123,0.166,8.432,17.795,83.0,12.27,34.74
0.24,0.166,8.432,17.793,83.0,12.27,34.92
-0.03,0.145,8.43,17.79,83.0,12.27,35.15
-0.081,0.166,8.428,17.788,82.0,12.27,35.41
-0.082,0.145,8.427,17.784,82.0,12.26,35.67
-0.101,0.166,8.426,17.778,82.0,12.27,35.89
-0.079,0.186,8.425,17.777,82.0,12.27,36.02
-0.113,0.166,8.422,17.774,82.0,12.27,36.27
0.008,0.29,8.421,17.773,82.0,12.27,36.57
-0.045,0.207,8.418,17.772,82.0,12.27,36.9
-0.034,0.186,8.417,17.769,82.0,12.27,37.14
0.105,0.104,8.415,17.767,82.0,12.27,37.35
0.199,0.166,8.413,17.765,82.0,12.27,37.57
-0.064,0.124,8.412,17.763,82.0,12.27,37.8
-0.108,0.207,8.41,17.762,85.0,12.27,38.02
-0.104,0.166,8.407,17.759,85.0,12.27,38.22
-0.111,0.166,8.406,17.758,85.0,12.27,38.29
-0.089,0.124,8.405,17.757,85.0,12.27,38.29
-0.157,0.166,8.403,17.753,85.0,12.27,38.33
0.104,0.269,8.402,17.752,85.0,12.27,38.39
-0.11,0.311,8.4,17.749,85.0,12.27,38.45
0.015,0.145,8.397,17.747,85.0,12.27,38.39
0.205,0.186,8.397,17.744,85.0,12.27,38.28
0.058,0.145,8.395,17.742,85.0,12.27,38.16
-0.098,0.207,8.392,17.741,88.0,12.27,38.04
-0.089,0.186,8.391,17.738,88.0,12.27,37.91
-0.092,0.207,8.389,17.737,88.0,12.27,37.75
-0.088,0.186,8.385,17.735,88.0,12.27,37.47
-0.069,0.145,8.383,17.733,88.0,12.26,37.22
-0.136,0.166,8.381,17.731,88.0,12.26,37.06
0.165,0.331,8.379,17.728,88.0,12.26,36.91
-0.04,0.186,8.374,17.726,88.0,12.26,36.75
0.063,0.124,8.369,17.725,88.0,12.27,36.54
0.253,0.145,8.364,17.723,88.0,12.27,36.37
0.041,0.145,8.359,17.721,88.0,12.27,36.18
-0.076,0.186,8.358,17.72,85.0,12.26,36.01
-0.063,0.145,8.354,17.717,85.0,12.25,35.81
-0.076,0.145,8.353,17.717,85.0,12.23,35.66
-0.069,0.186,8.349,17.715,85.0,12.23,35.4
-0.052,0.186,8.348,17.713,85.0,12.23,35.2
-0.127,0.145,8.345,17.711,85.0,12.23,35.1
0.171,0.331,8.343,17.71,85.0,12.25,35.05
-0.032,0.124,8.341,17.708,85.0,12.25,34.99
0.065,0.124,8.34,17.707,85.0,12.26,34.9
0.256,0.124,8.338,17.703,85.0,12.27,34.83
0.056,0.207,8.336,17.702,85.0,12.26,34.8
-0.073,0.145,8.335,17.7,84.0,12.26,35.02
-0.066,0.166,8.333,17.7,84.0,12.26,35.14
-0.077,0.166,8.333,17.698,84.0,12.26,35.11
-0.091,0.186,8.33,17.697,84.0,12.26,34.89
-0.099,0.269,8.328,17.696,84.0,12.25,34.7
-0.115,0.166,8.326,17.695,84.0,12.23,34.64
0.187,0.331,8.324,17.695,84.0,12.22,34.68
-0.116,0.249,8.323,17.695,84.0,12.22,34.74
0.007,0.124,8.323,17.695,84.0,12.23,34.76
0.17,0.207,8.32,17.695,84.0,12.23,35.04
0.163,0.145,8.32,17.695,84.0,12.25,35.06
-0.075,0.145,8.318,17.696,81.0,12.27,35.31
-0.088,0.145,8.316,17.697,81.0,12.28,35.66
-0.094,0.186,8.315,17.695,81.0,12.28,36.09
-0.114,0.186,8.314,17.695,81.0,12.31,36.31
-0.097,0.166,8.313,17.695,81.0,12.29,36.55
-0.112,0.166,8.313,17.695,81.0,12.28,36.88
-0.116,0.166,8.31,17.693,81.0,12.29,37.2
0.048,0.29,8.308,17.692,81.0,12.28,37.53
-0.059,0.166,8.306,17.692,81.0,12.28,37.77
0.063,0.166,8.305,17.69,81.0,12.28,37.99
0.21,0.145,8.304,17.69,81.0,12.29,38.2
-0.036,0.166,8.303,17.687,81.0,12.29,38.43
-0.109,0.145,8.302,17.687,81.0,12.28,38.65
-0.096,0.186,8.301,17.685,81.0,12.28,38.82
-0.106,0.166,8.301,17.687,81.0,12.28,38.86
-0.058,0.145,8.299,17.686,81.0,12.28,38.7
-0.106,0.186,8.298,17.683,81.0,12.28,38.5
0.082,0.207,8.296,17.681,81.0,12.28,38.3
-0.028,0.269,8.294,17.678,81.0,12.27,38.16
0.006,0.166,8.293,17.677,81.0,12.27,37.98
0.161,0.228,8.291,17.675,81.0,12.28,37.77
0.239,0.145,8.289,17.672,81.0,12.28,37.56
-0.026,0.166,8.288,17.67,81.0,12.27,37.32
-0.053,0.145,8.286,17.668,85.0,12.27,37.07
-0.044,0.166,8.284,17.667,85.0,12.27,36.81
-0.057,0.249,8.283,17.665,85.0,12.27,36.53
-0.044,0.124,8.283,17.665,85.0,12.27,36.21
-0.025,0.207,8.281,17.662,85.0,12.28,35.98
-0.092,0.186,8.279,17.66,85.0,12.28,35.8
0.213,0.394,8.278,17.658,85.0,12.28,35.67
0.08,0.207,8.278,17.657,85.0,12.31,35.53
0.144,0.186,8.276,17.657,85.0,12.31,35.42
0.294,0.166,8.276,17.655,85.0,12.31,35.33
0.098,0.145,8.273,17.657,85.0,12.32,35.27
-0.035,0.124,8.273,17.658,81.0,12.32,35.21
-0.025,0.124,8.269,17.672,81.0,12.32,35.07
-0.037,0.207,8.271,17.673,81.0,12.31,35.06
-0.046,0.166,8.271,17.684,81.0,12.29,34.86
-0.007,0.145,8.268,17.7,81.0,12.28,34.69
-0.073,0.145,8.267,17.721,81.0,12.28,34.62
0.21,0.29,8.266,17.746,81.0,12.31,34.64
-0.051,0.186,8.264,17.771,81.0,12.31,34.65
0.064,0.166,8.263,17.801,81.0,12.31,34.59
0.244,0.166,8.262,17.834,81.0,12.29,34.55
0.159,0.104,8.261,17.867,81.0,12.29,34.55
-0.051,0.166,8.261,17.9,82.0,12.29,34.55
-0.056,0.124,8.261,17.93,82.0,12.29,34.55
-0.069,0.228,8.259,17.958,82.0,12.29,34.6
-0.086,0.166,8.261,17.984,82.0,12.29,34.65
-0.053,0.145,8.262,18.008,82.0,12.29,34.74
-0.128,0.207,8.263,18.028,82.0,12.31,34.99
0.143,0.331,8.267,18.046,82.0,12.31,35.35
-0.126,0.166,8.269,18.06,82.0,12.31,35.67
-0.008,0.145,8.274,18.074,82.0,12.31,36.01
0.17,0.145,8.278,18.086,82.0,12.28,36.39
0.077,0.166,8.282,18.098,82.0,12.28,36.74
-0.127,0.124,8.287,18.115,84.0,12.27,37.07
-0.127,0.186,8.294,18.136,84.0,12.27,37.36
-0.123,0.145,8.299,18.166,84.0,12.27,37.66
-0.099,0.228,8.306,18.202,84.0,12.27,37.82
-0.167,0.145,8.314,18.244,84.0,12.26,38.02
0.094,0.269,8.321,18.293,84.0,12.25,38.27
-0.181,0.166,8.329,18.351,84.0,12.25,38.56
-0.009,0.166,8.336,18.411,84.0,12.25,38.73
0.184,0.166,8.344,18.473,84.0,12.25,38.82
0.108,0.104,8.351,18.535,84.0,12.25,38.83
-0.093,0.104,8.359,18.593,93.0,12.25,38.7
-0.086,0.186,8.366,18.648,93.0,12.25,38.45
-0.08,0.166,8.375,18.695,93.0,12.25,38.17
-0.041,0.124,8.382,18.736,93.0,12.25,37.85
-0.097,0.186,8.392,18.772,93.0,12.25,37.52
0.196,0.352,8.402,18.803,93.0,12.25,37.27
-0.095,0.29,8.412,18.826,93.0,12.25,37.07
0.021,0.166,8.424,18.842,93.0,12.25,36.85
0.191,0.186,8.437,18.855,93.0,12.25,36.59
0.202,0.145,8.451,18.857,93.0,12.23,36.39
-0.045,0.145,8.463,18.856,93.0,12.23,36.2
-0.052,0.166,8.478,18.858,90.0,12.23,35.95
-0.017,0.186,8.493,18.866,90.0,12.23,35.73
-0.014,0.207,8.51,18.857,90.0,12.23,35.48
-0.066,0.186,8.525,18.834,90.0,12.22,35.18
0.03,0.352,8.543,18.806,90.0,12.22,35.01
0.097,0.269,8.558,18.772,90.0,12.21,34.88
0.023,0.166,8.584,18.745,90.0,12.22,34.74
0.162,0.124,8.585,18.743,90.0,12.22,34.73
0.267,0.124,8.598,18.718,90.0,12.23,34.65
-0.008,0.104,8.611,18.686,90.0,12.22,34.59
-0.04,0.145,8.623,18.663,91.0,12.22,34.55
-0.035,0.166,8.636,18.642,91.0,12.22,34.49
-0.026,0.186,8.646,18.62,91.0,12.22,34.4
-0.02,0.104,8.655,18.601,91.0,12.22,34.22
-0.092,0.207,8.663,18.586,91.0,12.23,34.15
0.215,0.331,8.669,18.568,91.0,12.25,34.18
0.006,0.166,8.674,18.541,91.0,12.25,34.21
0.102,0.145,8.679,18.524,91.0,12.25,34.17
0.288,0.186,8.682,18.508,91.0,12.25,34.12
0.064,0.145,8.686,18.491,91.0,12.26,34.14
-0.051,0.145,8.686,18.475,89.0,12.26,34.18
-0.047,0.145,8.688,18.458,89.0,12.26,34.22
-0.053,0.186,8.688,18.443,89.0,12.26,34.31
-0.034,0.166,8.688,18.429,89.0,12.26,34.33
-0.11,0.145,8.689,18.415,89.0,12.26,34.48
0.183,0.414,8.688,18.402,89.0,12.26,34.8
-0.057,0.186,8.686,18.388,89.0,12.25,35.21
0.041,0.145,8.684,18.375,89.0,12.25,35.56
0.222,0.166,8.681,18.365,89.0,12.25,35.86
0.059,0.124,8.677,18.357,89.0,12.26,36.23
-0.095,0.166,8.672,18.354,91.0,12.25,36.58
-0.091,0.186,8.669,18.358,91.0,12.25,36.89
-0.062,0.145,8.664,18.373,91.0,12.26,37.19
-0.1,0.207,8.659,18.402,91.0,12.26,37.35
-0.111,0.228,8.655,18.443,91.0,12.26,37.57
0.07,0.331,8.65,18.498,91.0,12.27,37.81
-0.034,0.186,8.645,18.566,91.0,12.28,38.07
0.093,0.186,8.637,18.646,91.0,12.28,38.21
0.228,0.104,8.632,18.735,91.0,12.27,38.29
-0.053,0.186,8.626,18.833,91.0,12.26,38.3
-0.084,0.228,8.62,18.934,96.0,12.27,38.2
-0.071,0.145,8.615,19.041,96.0,12.27,38.0
-0.068,0.104,8.61,19.146,96.0,12.28,37.76
-0.054,0.145,8.605,19.249,96.0,12.28,37.46
-0.119,0.186,8.602,19.454,96.0,12.28,37.06
0.178,0.435,8.602,19.467,96.0,12.28,37.05
-0.043,0.124,8.604,19.559,96.0,12.28,36.91
0.063,0.166,8.608,19.65,96.0,12.28,36.71
0.258,0.145,8.616,19.731,96.0,12.28,36.52
0.07,0.166,8.627,19.81,96.0,12.27,36.33
-0.068,0.124,8.644,19.886,89.0,12.27,36.16
-0.06,0.207,8.664,19.96,89.0,12.27,35.94
-0.068,0.145,8.688,20.039,89.0,12.27,35.75
-0.067,0.186,8.715,20.116,89.0,12.27,35.45
-0.041,0.166,8.746,20.184,89.0,12.27,35.24
-0.105,0.124,8.781,20.245,89.0,12.27,35.11
0.182,0.352,8.819,20.3,89.0,12.27,35.04
-0.044,0.145,8.857,20.348,89.0,12.27,34.96
0.059,0.166,8.901,20.389,89.0,12.27,34.85
0.254,0.145,8.945,20.426,89.0,12.27,34.77
0.097,0.186,8.99,20.447,89.0,12.27,34.7
-0.063,0.228,9.037,20.458,84.0,12.27,34.64
-0.065,0.166,9.085,20.463,84.0,12.27,34.55
-0.071,0.145,9.132,20.458,84.0,12.27,34.49
-0.086,0.166,9.181,20.44,84.0,12.27,34.31
-0.092,0.166,9.229,20.416,84.0,12.27,34.18
-0.092,0.145,9.315,20.346,84.0,12.27,34.17
-0.09,0.145,9.32,20.342,84.0,12.27,34.17
-0.089,0.207,9.358,20.299,84.0,12.27,34.19
-0.066,0.145,9.395,20.25,84.0,12.26,34.16
-0.069,0.166,9.431,20.199,84.0,12.26,34.18
-0.053,0.249,9.463,20.144,84.0,12.27,34.25
0.182,0.352,9.496,20.09,84.0,12.27,34.37
0.002,0.145,9.526,20.031,84.0,12.26,34.52
0.104,0.186,9.554,19.972,84.0,12.27,34.71
0.266,0.145,9.582,19.913,84.0,12.25,34.94
0.025,0.166,9.607,19.855,84.0,12.23,35.26
-0.071,0.186,9.632,19.795,59.0,12.25,35.57
-0.069,0.166,9.654,19.738,59.0,12.25,35.86
-0.086,0.166,9.674,19.679,59.0,12.26,36.08
-0.105,0.124,9.691,19.625,59.0,12.27,36.2
-0.106,0.186,9.706,19.573,59.0,12.29,36.46
-0.089,0.166,9.715,19.521,59.0,12.32,36.79
-0.132,0.249,9.724,19.474,59.0,12.31,37.13
0.133,0.269,9.738,19.429,59.0,12.31,37.36
-0.059,0.207,9.758,19.384,59.0,12.33,37.55
0.059,0.166,9.77,19.343,59.0,12.33,37.75
0.257,0.145,9.767,19.303,59.0,12.34,37.94
0.071,0.124,9.757,19.264,59.0,12.33,38.09
-0.074,0.124,9.748,19.23,75.0,12.33,38.14
-0.064,0.269,9.742,19.195,75.0,12.33,38.05
-0.059,0.145,9.734,19.163,75.0,12.33,37.87
-0.071,0.29,9.728,19.131,75.0,12.33,37.55
-0.07,0.29,9.722,19.104,75.0,12.33,37.21
-0.053,0.311,9.709,19.072,75.0,12.33,36.93
-0.042,0.331,9.696,19.044,75.0,12.33,36.67
-0.024,0.228,9.681,19.012,75.0,12.33,36.45
0.189,0.29,9.665,18.986,75.0,12.33,36.18
0.038,0.166,9.649,18.963,75.0,12.33,35.85
0.149,0.145,9.634,18.944,75.0,12.33,35.61
0.319,0.145,9.619,18.932,75.0,12.33,35.45
0.044,0.186,9.602,18.925,75.0,12.33,35.28
-0.033,0.124,9.583,18.932,73.0,12.32,35.11
-0.025,0.083,9.564,18.954,73.0,12.32,34.89
-0.032,0.207,9.546,18.991,73.0,12.32,34.76
-0.041,0.124,9.53,19.048,73.0,12.32,34.54
-0.033,0.186,9.512,19.123,73.0,12.33,34.43
0.004,0.104,9.495,19.202,73.0,12.33,34.37
-0.048,0.166,9.477,19.292,73.0,12.33,34.38
0.223,0.352,9.46,19.385,73.0,12.33,34.37
0.007,0.104,9.443,19.484,73.0,12.33,34.36
0.111,0.166,9.429,19.584,73.0,12.33,34.35
0.307,0.104,9.418,19.681,73.0,12.33,34.29
0.17,0.124,9.409,19.776,73.0,12.33,34.26
-0.021,0.124,9.404,19.862,75.0,12.33,34.29
-0.027,0.104,9.405,19.944,75.0,12.33,34.39
-0.033,0.124,9.41,20.015,75.0,12.33,34.57
-0.049,0.124,9.42,20.07,75.0,12.33,34.64
-0.016,0.124,9.439,20.11,75.0,12.33,34.8
-0.082,0.145,9.462,20.14,75.0,12.34,35.15
0.185,0.29,9.491,20.169,75.0,12.34,35.55
-0.082,0.124,9.526,20.181,75.0,12.33,35.92
0.054,0.166,9.566,20.196,75.0,12.33,36.26
0.244,0.124,9.609,20.225,75.0,12.33,36.57
0.147,0.124,9.655,20.216,75.0,12.32,36.88
-0.066,0.166,9.706,20.198,83.0,12.32,37.2
-0.072,0.145,9.758,20.14,83.0,12.32,37.47
-0.069,0.104,9.812,20.064,83.0,12.32,37.67
-0.031,0.145,9.865,20.008,83.0,12.32,37.77
-0.095,0.186,9.916,19.953,83.0,12.32,37.87
0.199,0.269,9.968,19.899,83.0,12.32,38.03
-0.134,0.207,10.018,19.855,83.0,12.32,38.17
0.027,0.145,10.067,19.811,83.0,12.32,38.18
0.199,0.145,10.111,19.775,83.0,12.31,38.02
0.204,0.124,10.154,19.733,83.0,12.31,37.8
-0.042,0.124,10.195,19.692,83.0,12.31,37.61
-0.057,0.166,10.232,19.652,90.0,12.31,37.39
-0.052,0.124,10.266,19.614,90.0,12.31,37.13
-0.034,0.124,10.298,19.579,90.0,12.31,36.79
-0.047,0.104,10.325,19.548,90.0,12.31,36.42
-0.08,0.228,10.346,19.516,90.0,12.31,36.15
0.188,0.394,10.366,19.491,90.0,12.31,35.89
0.012,0.166,10.382,19.473,90.0,12.31,35.71
0.123,0.124,10.396,19.467,90.0,12.31,35.54
0.293,0.124,10.405,19.477,90.0,12.31,35.38
0.028,0.186,10.412,19.502,90.0,12.31,35.21
-0.047,0.104,10.417,19.544,89.0,12.31,35.07
-0.042,0.124,10.419,19.601,89.0,12.31,34.92
-0.047,0.145,10.419,19.68,89.0,12.31,34.81
-0.016,0.166,10.415,19.765,89.0,12.31,34.59
-0.087,0.186,10.41,19.854,89.0,12.31,34.45
0.204,0.414,10.405,19.939,89.0,12.31,34.39
-0.055,0.166,10.397,20.019,89.0,12.31,34.42
0.056,0.124,10.388,20.128,89.0,12.31,34.44
0.243,0.145,10.382,20.236,89.0,12.31,34.4
0.134,0.166,10.377,20.333,89.0,12.31,34.38
-0.065,0.145,10.376,20.424,89.0,12.31,34.4
-0.063,0.166,10.377,20.501,89.0,12.31,34.42
-0.076,0.124,10.382,20.576,89.0,12.31,34.42
-0.054,0.145,10.393,20.643,89.0,12.31,34.37
-0.093,0.145,10.407,20.697,89.0,12.31,34.34
-0.058,0.207,10.427,20.742,89.0,12.31,34.54
0.093,0.269,10.449,20.778,89.0,12.31,34.85
-0.025,0.166,10.478,20.809,89.0,12.31,35.16
0.098,0.145,10.508,20.832,89.0,12.31,35.41
0.215,0.104,10.539,20.85,89.0,12.31,35.73
-0.047,0.124,10.574,20.865,89.0,12.31,36.07
-0.103,0.124,10.606,20.879,88.0,12.31,36.37
-0.101,0.145,10.642,20.898,88.0,12.31,36.62
-0.081,0.166,10.678,20.925,88.0,12.31,36.83
-0.119,0.145,10.715,20.964,88.0,12.31,36.95
-0.122,0.207,10.753,21.012,88.0,12.31,37.19
0.05,0.207,10.787,21.068,88.0,12.31,37.47
-0.058,0.145,10.816,21.126,88.0,12.31,37.73
0.068,0.166,10.846,21.187,88.0,12.31,37.91
0.202,0.124,10.872,21.257,93.0,12.32,38.08
-0.044,0.145,10.899,21.322,93.0,12.31,38.23
-0.099,0.166,10.922,21.385,93.0,12.31,38.33
-0.089,0.124,10.944,21.441,93.0,12.32,38.33
-0.076,0.186,10.968,21.486,93.0,12.31,38.15
-0.078,0.186,10.989,21.519,93.0,12.31,37.86
0.05,0.331,11.01,21.535,93.0,12.31,37.63
0.064,0.497,11.026,21.54,93.0,12.31,37.45
-0.043,0.145,11.042,21.528,93.0,12.31,37.32
0.069,0.145,11.06,21.502,100.0,12.31,37.13
0.243,0.145,11.075,21.464,100.0,12.31,36.93
0.004,0.124,11.107,21.376,100.0,12.32,36.54
-0.086,0.145,11.109,21.37,100.0,12.32,36.51
-0.075,0.104,11.124,21.316,100.0,12.31,36.32
-0.067,0.186,11.138,21.256,100.0,12.31,36.11
-0.052,0.145,11.149,21.189,100.0,12.31,35.75
-0.123,0.207,11.159,21.12,100.0,12.31,35.52
0.174,0.311,11.168,21.05,100.0,12.31,35.39
-0.048,0.166,11.173,20.985,100.0,12.31,35.32
0.055,0.186,11.177,20.925,100.0,12.31,35.23
0.25,0.145,11.175,20.875,100.0,12.31,35.11
0.068,0.145,11.17,20.839,100.0,12.31,35.02
-0.071,0.145,11.163,20.819,83.0,12.31,34.95
-0.056,0.124,11.155,20.821,83.0,12.31,34.85
-0.056,0.145,11.145,20.847,83.0,12.31,34.79
-0.012,0.186,11.13,20.897,83.0,12.31,34.63
-0.078,0.145,11.116,20.969,83.0,12.31,34.51
0.235,0.311,11.098,21.058,83.0,12.31,34.45
-0.056,0.186,11.077,21.163,83.0,12.31,34.49
0.073,0.145,11.057,21.282,83.0,12.31,34.52
0.25,0.124,11.036,21.405,83.0,12.31,34.49
0.199,0.145,11.016,21.533,83.0,12.31,34.46
-0.027,0.124,11.0,21.661,90.0,12.31,34.46
-0.037,0.104,10.987,21.786,90.0,12.31,34.47
-0.044,0.186,10.983,21.908,90.0,12.31,34.51
-0.068,0.124,10.986,22.022,90.0,12.31,34.51
-0.078,0.124,10.997,22.128,90.0,12.31,34.57
-0.067,0.29,11.016,22.227,90.0,12.31,34.8
0.15,0.29,11.043,22.321,90.0,12.31,35.16
-0.007,0.124,11.076,22.409,90.0,12.31,35.52
0.105,0.124,11.159,22.547,90.0,12.31,36.09
0.231,0.104,11.165,22.556,90.0,12.31,36.12
-0.029,0.145,11.214,22.614,90.0,12.31,36.42
-0.102,0.166,11.266,22.668,89.0,12.31,36.72
-0.097,0.166,11.323,22.705,89.0,12.31,37.01
-0.07,0.145,11.383,22.731,89.0,12.31,37.23
-0.127,0.104,11.443,22.752,89.0,12.31,37.37
-0.054,0.249,11.502,22.766,89.0,12.31,37.6
-0.005,0.228,11.562,22.771,89.0,12.31,37.88
-0.045,0.083,11.619,22.77,89.0,12.31,38.16
0.088,0.124,11.677,22.765,89.0,12.32,38.29
0.185,0.145,11.73,22.756,93.0,12.33,38.41
-0.067,0.104,11.787,22.746,93.0,12.33,38.48
-0.102,0.124,11.933,22.739,93.0,12.33,38.42
-0.09,0.104,12.094,22.741,93.0,12.33,38.17
-0.087,0.145,12.151,22.748,93.0,12.33,37.77
-0.066,0.145,12.115,22.771,93.0,12.34,37.25
-0.129,0.124,12.068,22.807,93.0,12.33,36.72
0.156,0.331,12.111,22.862,93.0,12.33,36.2
-0.073,0.186,12.121,22.932,93.0,12.34,35.75
0.037,0.166,12.089,23.019,93.0,12.33,35.28
0.227,0.104,12.089,23.115,93.0,12.34,34.88
0.07,0.145,12.119,23.216,93.0,12.33,34.54
-0.075,0.166,12.167,23.313,89.0,12.33,34.29
-0.061,0.186,12.219,23.407,89.0,12.33,33.99
-0.063,0.145,12.247,23.496,89.0,12.36,33.75
-0.053,0.124,12.285,23.585,89.0,12.37,33.28
-0.059,0.166,12.335,23.678,89.0,12.33,32.87
-0.11,0.186,12.385,23.76,89.0,12.34,32.41
0.149,0.311,12.399,23.856,89.0,12.33,32.21
-0.014,0.124,12.434,23.939,89.0,12.33,32.07
0.09,0.145,12.493,24.024,89.0,12.33,31.83
0.255,0.104,12.494,24.086,89.0,12.33,31.71
0.007,0.124,12.643,24.118,89.0,12.33,31.72
-0.081,0.104,12.76,24.167,86.0,12.33,31.8
-0.08,0.145,12.647,24.222,86.0,12.33,31.86
-0.097,0.145,12.577,24.265,86.0,12.33,31.89
-0.094,0.166,12.519,24.294,86.0,12.33,31.75
-0.102,0.166,12.497,24.33,86.0,12.33,31.77
-0.163,0.166,12.528,24.375,86.0,12.34,32.04
0.077,0.228,12.58,24.429,86.0,12.33,32.33
-0.098,0.145,12.66,24.495,86.0,12.34,32.84
0.01,0.124,12.808,24.572,86.0,12.34,33.15
0.164,0.145,12.908,24.663,83.0,12.36,33.34
-0.072,0.124,12.934,24.774,83.0,12.37,33.57
-0.179,0.124,12.909,24.88,83.0,12.34,33.9
-0.171,0.145,12.94,24.982,83.0,12.36,34.06
-0.173,0.104,13.001,25.072,83.0,12.31,34.25
-0.145,0.124,13.03,25.162,83.0,12.28,34.18
-0.209,0.145,13.039,25.249,83.0,12.27,34.32
0.079,0.29,13.071,25.315,83.0,12.29,34.68
-0.237,0.186,13.107,25.366,83.0,12.26,35.08
-0.056,0.145,13.128,25.405,83.0,12.27,35.5
0.124,0.145,13.154,25.435,89.0,12.26,35.57
0.064,0.124,13.186,25.458,89.0,12.21,35.55
-0.146,0.124,13.212,25.478,89.0,12.21,35.45
-0.146,0.166,13.241,25.496,89.0,12.23,35.26
-0.133,0.145,13.265,25.513,89.0,12.29,35.16
-0.128,0.145,13.289,25.533,89.0,12.36,34.79
-0.085,0.166,13.321,25.551,89.0,12.25,34.32
-0.133,0.166,13.36,25.584,89.0,12.32,34.09
0.153,0.29,13.408,25.638,89.0,12.26,33.93
-0.105,0.145,13.456,25.718,89.0,12.22,33.83
0.028,0.186,13.512,25.821,89.0,12.25,33.67
0.22,0.186,13.556,25.925,89.0,12.28,33.92
0.101,0.124,13.645,26.056,89.0,12.32,33.98
-0.078,0.104,13.81,26.203,85.0,12.23,33.63
-0.073,0.124,13.852,26.352,85.0,12.23,33.17
-0.077,0.145,13.855,26.481,85.0,12.33,32.9
-0.088,0.124,13.855,26.602,85.0,12.38,32.62
-0.041,0.166,13.856,26.717,85.0,12.45,32.39
-0.092,0.186,13.799,26.816,85.0,12.45,32.31
0.199,0.29,13.803,26.904,85.0,12.45,32.29
-0.118,0.186,13.809,26.981,85.0,12.51,32.24
0.043,0.124,13.852,27.04,85.0,12.59,32.16
0.215,0.186,13.906,27.096,85.0,12.45,32.12
0.191,0.104,13.982,27.134,85.0,12.42,32.07
-0.054,0.124,14.037,27.142,85.0,12.6,32.02
-0.061,0.124,14.033,27.162,83.0,13.26,31.93
-0.067,0.166,14.04,27.135,83.0,13.61,31.74
-0.088,0.145,14.053,27.071,83.0,13.92,31.59
-0.052,0.186,14.008,26.997,83.0,13.76,31.76
-0.115,0.124,14.02,26.91,83.0,13.84,31.83
0.174,0.311,14.055,26.802,83.0,14.1,32.06
-0.153,0.186,14.077,26.686,83.0,14.08,32.55
-0.012,0.166,14.125,26.579,83.0,14.28,33.02
0.149,0.124,14.173,26.487,83.0,14.63,33.56
0.14,0.145,14.217,26.41,83.0,14.47,33.9
-0.101,0.124,14.265,26.358,84.0,13.55,34.15
-0.119,0.145,14.313,26.338,84.0,12.72,34.4
-0.117,0.145,14.306,26.353,84.0,12.65,34.71
-0.118,0.124,14.338,26.402,84.0,12.76,34.84
-0.094,0.145,14.367,26.476,84.0,12.89,35.0
-0.156,0.145,14.372,26.571,84.0,13.06,35.24
0.113,0.352,14.403,26.684,84.0,13.14,35.55
-0.123,0.104,14.404,26.806,84.0,13.2,35.81
0.015,0.186,14.415,26.935,84.0,13.1,35.92
0.205,0.124,14.413,27.054,84.0,12.83,35.97
0.076,0.104,14.384,27.166,84.0,12.7,35.92
-0.087,0.166,14.356,27.271,85.0,12.65,35.82
-0.076,0.145,14.347,27.357,85.0,12.67,35.66
-0.073,0.104,14.348,27.432,85.0,12.66,35.46
-0.064,0.166,14.344,27.493,85.0,12.66,35.1
-0.035,0.145,14.344,27.545,85.0,12.64,34.77
-0.094,0.145,14.362,27.585,85.0,12.83,34.48
0.18,0.373,14.423,27.619,85.0,12.95,34.21
-0.023,0.145,14.49,27.654,85.0,12.73,33.94
0.087,0.124,14.539,27.689,85.0,12.65,33.72
0.282,0.166,14.546,27.726,85.0,12.66,33.52
0.111,0.145,14.499,27.772,85.0,12.81,33.31
-0.035,0.145,14.605,27.828,85.0,13.81,32.97
-0.025,0.145,14.684,27.899,85.0,15.27,32.94
-0.027,0.124,14.696,27.981,85.0,15.15,32.9
-0.011,0.145,14.714,28.076,85.0,15.51,32.87
-0.002,0.186,14.739,28.18,85.0,15.87,32.94
-0.061,0.166,14.723,28.292,85.0,15.25,33.17
0.212,0.352,14.621,28.411,85.0,14.41,33.33
0.042,0.29,14.73,28.544,85.0,14.44,33.5
0.151,0.311,14.75,28.679,85.0,14.52,33.78
0.328,0.414,14.897,28.793,85.0,14.46,34.03
0.107,0.746,14.979,28.901,85.0,14.32,34.05
-0.011,0.663,15.001,28.999,85.0,14.16,34.1
-0.001,1.098,15.042,29.072,85.0,14.02,34.14
-0.019,1.14,15.093,29.133,85.0,13.87,34.29
0.0,1.243,15.114,29.196,85.0,13.8,34.24
-0.038,1.388,15.137,29.23,85.0,13.64,34.28
-0.013,1.222,15.16,29.226,85.0,13.53,34.6
0.087,1.16,15.179,29.212,85.0,13.56,35.05
-0.007,1.616,15.189,29.186,85.0,13.5,35.3
0.102,1.098,15.212,29.147,85.0,13.27,35.42
0.198,1.554,15.227,29.106,85.0,13.19,35.49
-0.05,1.906,15.247,29.029,85.0,13.14,35.55
-0.139,0.87,15.281,28.916,86.0,13.15,35.68
-0.112,1.802,15.298,28.784,86.0,13.26,35.79
-0.106,1.077,15.325,28.635,86.0,13.33,35.92
-0.131,1.285,15.366,28.465,86.0,13.34,35.76
-0.121,1.077,15.395,28.368,86.0,13.36,36.14
0.028,0.787,15.424,28.566,86.0,13.34,36.15
-0.066,0.891,15.444,28.718,86.0,13.3,36.11
0.06,1.057,15.468,28.752,86.0,13.26,36.11
0.177,0.518,15.491,28.742,93.0,13.2,35.86
-0.075,1.202,15.511,28.733,93.0,13.37,35.59
-0.125,1.554,15.533,28.69,93.0,13.42,35.33
-0.106,0.767,15.549,28.599,93.0,13.3,35.08
-0.091,0.932,15.568,28.518,93.0,13.28,34.79
-0.124,0.684,15.587,28.457,93.0,13.28,34.48
-0.123,1.533,15.604,28.351,93.0,13.36,34.24
0.097,0.746,15.619,28.183,93.0,13.19,34.23
-0.065,0.622,15.637,27.955,93.0,13.16,34.31
0.071,0.622,15.637,27.941,93.0,13.17,34.31
0.2,0.539,15.646,27.791,93.0,13.11,34.24
-0.069,0.663,15.652,27.533,93.0,13.0,34.2
-0.113,0.684,15.656,27.35,93.0,12.86,34.16
-0.118,0.539,15.656,27.443,93.0,12.83,34.14
-0.09,0.642,15.656,27.622,93.0,12.89,34.07
-0.11,0.518,15.656,27.736,93.0,12.84,33.9
-0.15,0.642,15.655,27.799,93.0,12.81,33.86
0.143,0.849,15.648,27.833,93.0,12.8,33.87
-0.054,0.559,15.645,27.861,93.0,12.87,33.94
0.154,0.497,15.637,27.887,93.0,12.87,33.98
-0.05,0.829,15.635,27.905,93.0,12.86,34.06
-0.107,0.642,15.626,27.943,91.0,12.78,34.18
-0.106,0.622,15.62,28.002,91.0,12.8,34.35
-0.076,0.808,15.614,28.086,91.0,12.82,34.51
-0.11,0.601,15.608,28.277,91.0,12.81,34.84
-0.092,0.642,15.604,28.386,91.0,12.83,35.07
0.092,0.622,15.603,28.497,91.0,12.8,35.35
-0.047,0.58,15.602,28.553,91.0,12.82,35.66
0.095,0.477,15.602,28.586,91.0,12.82,35.91
0.205,0.311,15.602,28.599,91.0,12.8,36.15
-0.029,0.269,15.604,28.604,91.0,12.81,36.39
-0.083,0.269,15.605,28.597,104.0,12.87,36.55
-0.072,0.186,15.609,28.582,104.0,12.92,36.64
-0.056,0.207,15.611,28.528,104.0,12.92,36.56
-0.066,0.352,15.623,28.472,104.0,12.9,36.43
-0.109,0.207,15.623,28.409,104.0,12.88,36.31
0.174,0.29,15.616,28.31,104.0,12.86,36.35
-0.016,0.269,15.605,28.171,104.0,12.9,36.47
0.102,0.166,15.631,28.032,104.0,12.98,36.47
0.253,0.186,15.629,27.893,104.0,12.98,36.49
0.015,0.186,15.624,27.756,104.0,13.01,36.45
-0.059,0.166,15.625,27.631,91.0,13.0,36.41
-0.051,0.186,15.616,27.515,91.0,12.94,36.3
-0.044,0.166,15.614,27.406,91.0,12.9,36.1
-0.037,0.29,15.611,27.315,91.0,12.87,35.82
-0.111,0.166,15.594,27.24,91.0,12.88,35.62
0.206,0.394,15.588,27.173,91.0,12.83,35.49
0.071,0.207,15.566,27.113,91.0,12.82,35.5
0.131,0.166,15.543,27.049,91.0,12.82,35.45
0.26,0.124,15.537,26.987,91.0,12.84,35.36
0.037,0.166,15.527,26.92,91.0,12.87,35.29
-0.054,0.124,15.515,26.848,91.0,12.92,35.26
-0.054,0.124,15.503,26.689,91.0,12.8,35.2
-0.064,0.145,15.502,26.679,91.0,12.76,35.2
-0.033,0.186,15.465,26.593,91.0,12.86,35.06
-0.091,0.186,15.452,26.504,91.0,12.97,34.97
0.209,0.352,15.436,26.419,91.0,13.08,35.06
-0.059,0.269,15.4,26.348,91.0,13.12,35.26
0.06,0.186,15.388,26.313,91.0,13.15,35.54
0.243,0.166,15.369,26.328,91.0,13.27,35.64
0.17,0.145,15.348,26.394,91.0,13.41,35.64
-0.013,0.145,15.322,26.507,91.0,13.37,35.86
0.008,0.186,15.29,26.662,90.0,13.31,36.2
0.009,0.124,15.263,26.854,90.0,13.31,36.38
0.056,0.124,15.237,27.068,90.0,13.21,36.23
0.014,0.207,15.183,27.292,90.0,13.1,35.93
0.229,0.331,15.125,27.514,90.0,13.08,35.7
0.086,0.186,15.078,27.73,90.0,13.16,35.65
0.128,0.145,15.042,27.949,90.0,13.26,35.58
0.272,0.145,15.001,28.163,90.0,13.37,35.47
0.307,0.166,14.97,28.364,90.0,13.38,35.26
0.048,0.166,14.959,28.56,90.0,13.33,35.2
0.026,0.166,14.951,28.759,90.0,13.32,35.16
0.007,0.166,14.959,28.957,90.0,13.27,35.14
0.013,0.207,14.971,29.156,89.0,13.23,35.07
-0.006,0.145,14.989,29.345,89.0,13.25,34.91
-0.029,0.228,15.012,29.526,89.0,13.23,34.86
0.179,0.311,15.039,29.694,89.0,13.2,34.89
0.04,0.166,15.069,29.853,89.0,13.17,34.94
0.152,0.166,15.102,30.002,89.0,13.16,34.96
0.276,0.166,15.135,30.139,89.0,13.23,35.02
0.029,0.145,15.17,30.257,89.0,13.26,35.13
-0.022,0.145,15.205,30.357,91.0,13.25,35.32
-0.023,0.124,15.24,30.404,91.0,13.37,35.51
-0.002,0.186,15.277,30.455,91.0,13.78,35.68
-0.047,0.145,15.312,30.487,91.0,13.89,35.7
0.108,0.29,15.349,30.508,91.0,13.95,35.94
-0.027,0.207,15.39,30.507,91.0,13.95,36.26
0.024,0.145,15.426,30.486,91.0,14.13,36.65
0.171,0.145,15.465,30.436,91.0,13.59,37.0
0.211,0.145,15.503,30.379,91.0,14.11,37.27
-0.038,0.124,15.539,30.306,91.0,14.66,37.52
-0.059,0.207,15.574,30.205,94.0,14.57,37.72
-0.044,0.166,15.608,30.101,94.0,14.65,37.89
-0.038,0.145,15.642,29.995,94.0,15.08,38.03
-0.118,0.186,15.673,29.896,94.0,15.21,38.13
0.13,0.331,15.703,29.8,94.0,15.19,38.27
-0.035,0.145,15.732,29.71,94.0,15.14,38.41
0.079,0.186,15.757,29.624,94.0,14.6,38.49
0.237,0.207,15.781,29.538,94.0,14.43,38.45
0.03,0.166,15.798,29.463,94.0,14.58,38.26
-0.067,0.186,15.815,29.41,99.0,14.32,38.04
-0.055,0.145,15.831,29.356,99.0,14.05,37.8
-0.035,0.186,15.842,29.29,99.0,14.03,37.56
-0.063,0.145,15.852,29.208,99.0,13.95,37.22
-0.048,0.228,15.859,29.122,99.0,13.64,36.95
0.126,0.331,15.866,29.044,99.0,13.56,36.8
0.002,0.166,15.869,28.955,99.0,13.66,36.74
0.124,0.145,15.87,28.841,99.0,13.8,36.57
0.226,0.166,15.87,28.713,99.0,14.04,36.33
-0.029,0.124,15.869,28.573,99.0,14.09,36.17
-0.068,0.145,15.866,28.429,95.0,13.82,36.02
-0.065,0.186,15.86,28.275,95.0,13.75,35.86
-0.034,0.207,15.85,28.114,95.0,13.84,35.68
-0.092,0.166,15.84,27.949,95.0,13.55,35.4
0.12,0.311,15.83,27.782,95.0,13.3,35.28
-0.046,0.228,15.815,27.615,95.0,13.15,35.21
0.0,0.166,15.798,27.447,95.0,13.03,35.22
0.142,0.124,15.778,27.285,95.0,13.01,35.18
0.164,0.145,15.756,27.127,95.0,13.06,35.09
-0.081,0.166,15.73,26.981,95.0,13.14,35.02
-0.093,0.166,15.703,26.84,95.0,13.14,35.01
-0.097,0.186,15.67,26.711,95.0,12.56,35.0
-0.061,0.186,15.635,26.592,95.0,12.32,34.96
-0.122,0.186,15.598,26.49,95.0,12.37,34.87
0.13,0.331,15.559,26.42,95.0,13.12,34.82
-0.103,0.228,15.516,26.36,95.0,13.48,34.85
-0.028,0.145,15.471,26.317,95.0,13.09,34.91
0.126,0.145,15.425,26.3,93.0,12.8,34.95
0.125,0.166,15.375,26.307,93.0,12.77,35.02
-0.105,0.124,15.325,26.339,93.0,12.84,35.17
-0.116,0.166,15.274,26.394,93.0,13.0,35.37
-0.117,0.166,15.222,26.461,93.0,13.27,35.62
-0.094,0.145,15.17,26.537,93.0,14.2,35.78
-0.168,0.124,15.119,26.625,93.0,15.73,35.97
0.081,0.373,15.069,26.722,93.0,18.33,36.31
-0.151,0.145,15.021,26.831,93.0,22.02,36.68
-0.029,0.166,14.975,26.933,93.0,24.94,37.01
0.143,0.207,14.933,27.038,95.0,23.66,37.31
-0.003,0.166,14.894,27.151,95.0,16.91,37.61
-0.161,0.145,14.86,27.247,95.0,18.14,37.95
-0.158,0.166,14.831,27.324,95.0,22.44,38.29
-0.116,0.124,14.79,27.398,95.0,31.78,38.56
-0.173,0.166,14.745,27.468,95.0,36.35,38.68
-0.004,0.29,14.67,27.526,95.0,30.24,38.86
-0.143,0.207,14.571,27.57,95.0,24.15,39.07
-0.076,0.124,14.45,27.595,95.0,17.52,39.29
0.077,0.166,14.35,27.601,99.0,17.13,39.42
0.116,0.166,14.307,27.593,99.0,19.67,39.35
-0.12,0.145,14.345,27.573,99.0,21.16,39.13
-0.138,0.166,14.438,27.539,99.0,34.11,38.96
-0.123,0.124,14.525,27.493,99.0,39.03,38.8
-0.088,0.186,14.618,27.438,99.0,28.24,38.54
-0.156,0.166,14.664,27.38,99.0,24.05,38.22
0.145,0.29,14.791,27.318,99.0,19.18,37.97
-0.147,0.186,14.91,27.253,99.0,15.65,37.71
-0.009,0.186,14.962,27.181,99.0,14.2,37.45
0.169,0.145,15.02,27.111,96.0,14.14,37.08
0.068,0.124,15.045,27.043,96.0,13.87,36.73
-0.114,0.145,15.063,26.967,96.0,13.5,36.43
-0.11,0.166,15.077,26.903,96.0,13.21,36.14
-0.113,0.145,15.083,26.861,96.0,13.16,35.83
-0.074,0.166,15.103,26.793,96.0,13.19,35.47
-0.144,0.145,15.105,26.754,96.0,13.21,35.21
0.162,0.29,15.087,26.777,96.0,13.2,35.03
-0.139,0.166,15.066,26.817,96.0,13.23,34.94
-0.011,0.124,15.057,26.901,96.0,13.22,34.9
0.162,0.124,15.049,27.015,96.0,13.21,34.82
0.093,0.145,15.033,27.172,96.0,13.26,34.77
-0.112,0.186,15.014,27.355,91.0,13.23,34.76
-0.112,0.145,14.995,27.547,91.0,13.17,34.74
-0.118,0.166,14.978,27.741,91.0,13.14,34.72
-0.093,0.145,14.959,27.933,91.0,13.12,34.6
-0.125,0.166,14.941,28.112,91.0,13.05,34.48
-0.068,0.269,14.929,28.271,91.0,13.0,34.45
0.037,0.249,14.919,28.401,91.0,12.98,34.49
-0.048,0.145,14.914,28.511,91.0,12.92,34.55
0.087,0.145,14.917,28.596,91.0,12.9,34.55
0.175,0.124,14.925,28.666,91.0,12.9,34.55
-0.091,0.124,14.94,28.718,91.0,12.93,34.57
-0.126,0.145,14.961,28.754,89.0,12.94,34.63
-0.127,0.186,14.987,28.78,89.0,12.94,34.71
-0.142,0.104,15.018,28.805,89.0,12.97,34.81
-0.157,0.166,15.053,28.835,89.0,13.03,34.85
-0.103,0.166,15.089,28.878,89.0,13.06,35.07
-0.165,0.166,15.128,28.931,89.0,13.03,35.35
0.123,0.331,15.167,28.992,89.0,12.99,35.68
-0.185,0.228,15.207,29.064,89.0,12.99,35.94
-0.045,0.124,15.249,29.138,89.0,12.99,36.2
0.115,0.124,15.288,29.212,80.0,13.0,36.49
0.065,0.166,15.328,29.274,80.0,13.0,36.79
-0.147,0.145,15.365,29.326,80.0,12.97,37.11
-0.156,0.145,15.4,29.363,80.0,12.95,37.4
-0.152,0.186,15.434,29.383,80.0,12.95,37.69
-0.176,0.166,15.463,29.383,80.0,12.94,37.82
-0.137,0.166,15.492,29.369,80.0,12.94,37.99
-0.191,0.166,15.518,29.333,80.0,12.94,38.26
0.06,0.331,15.543,29.276,80.0,13.0,38.55
-0.198,0.228,15.565,29.201,80.0,13.08,38.8
-0.074,0.145,15.588,29.109,80.0,13.22,39.01
0.081,0.145,15.609,28.999,83.0,13.27,39.21
0.105,0.104,15.629,28.872,83.0,13.17,39.41
-0.127,0.145,15.647,28.732,83.0,13.08,39.57
-0.138,0.104,15.665,28.575,83.0,13.2,39.63
-0.125,0.145,15.68,28.413,83.0,13.22,39.53
-0.137,0.145,15.695,28.245,83.0,13.2,39.27
-0.091,0.166,15.708,28.073,83.0,13.12,38.97
-0.143,0.124,15.72,27.907,83.0,13.15,38.77
0.176,0.311,15.729,27.738,83.0,13.08,38.59
-0.143,0.207,15.737,27.572,83.0,13.08,38.42
0.004,0.166,15.741,27.419,83.0,13.08,38.25
0.188,0.124,15.741,27.265,83.0,12.97,38.08
0.105,0.124,15.741,27.121,83.0,12.92,37.87
-0.095,0.104,15.737,26.98,85.0,12.95,37.64
-0.092,0.145,15.728,26.849,85.0,12.88,37.41
-0.084,0.124,15.717,26.725,85.0,12.86,37.17
-0.095,0.186,15.702,26.608,85.0,12.82,36.82
-0.051,0.166,15.684,26.497,85.0,12.78,36.49
-0.091,0.124,15.664,26.394,85.0,12.7,36.25
0.128,0.29,15.64,26.29,85.0,12.95,36.04
-0.039,0.186,15.614,26.189,85.0,12.97,35.86
0.008,0.124,15.584,26.09,85.0,12.88,35.68
0.166,0.145,15.55,25.995,85.0,12.98,35.54
0.219,0.124,15.518,25.905,85.0,12.77,35.41
-0.052,0.145,15.481,25.816,85.0,12.71,35.34
-0.071,0.124,15.443,25.729,82.0,12.75,35.25
-0.065,0.145,15.405,25.645,82.0,12.75,35.17
-0.082,0.124,15.363,25.565,82.0,12.69,35.04
-0.084,0.124,15.321,25.49,82.0,12.67,34.85
-0.042,0.124,15.276,25.421,82.0,12.67,34.78
-0.104,0.145,15.23,25.351,82.0,12.66,34.77
0.19,0.249,15.181,25.285,82.0,12.66,34.83
-0.083,0.166,15.134,25.222,82.0,12.66,34.84
0.04,0.145,15.085,25.162,82.0,12.66,34.82
0.23,0.186,15.034,25.106,82.0,12.66,34.79
0.137,0.104,14.985,25.052,82.0,12.66,34.76
-0.068,0.145,14.935,24.999,80.0,12.66,34.79
-0.066,0.186,14.883,24.948,80.0,12.66,34.85
-0.07,0.124,14.833,24.902,80.0,12.66,34.9
-0.084,0.145,14.786,24.858,80.0,12.66,34.78
-0.076,0.145,14.736,24.818,80.0,12.65,34.64
-0.046,0.124,14.688,24.782,80.0,12.65,34.61
-0.114,0.124,14.642,24.746,80.0,12.65,34.7
0.167,0.331,14.596,24.711,80.0,12.65,34.76
-0.038,0.145,14.551,24.68,80.0,12.65,34.72
0.058,0.104,14.506,24.652,80.0,12.65,34.75
0.24,0.166,14.464,24.627,80.0,12.65,34.9
0.053,0.124,14.422,24.602,80.0,12.65,35.13
-0.089,0.124,14.381,24.577,78.0,12.65,35.4
-0.086,0.166,14.344,24.55,78.0,12.65,35.64
-0.095,0.124,14.306,24.522,78.0,12.65,35.85
-0.106,0.145,14.268,24.495,78.0,12.65,35.9
-0.069,0.124,14.232,24.47,78.0,12.65,36.12
-0.136,0.104,14.195,24.442,78.0,12.65,36.52
0.13,0.311,14.161,24.408,78.0,12.65,36.94
-0.114,0.124,14.128,24.372,78.0,12.65,37.24
0.018,0.145,14.096,24.336,78.0,12.65,37.46
0.201,0.145,14.064,24.3,78.0,12.65,37.73
0.063,0.145,14.03,24.264,78.0,12.65,38.0
-0.108,0.145,13.998,24.225,83.0,12.65,38.28
-0.108,0.124,13.965,24.188,83.0,12.65,38.59
-0.078,0.269,13.937,24.152,83.0,12.65,38.84
-0.08,0.228,13.907,24.117,83.0,12.65,38.92
-0.137,0.124,13.88,24.083,83.0,12.65,39.03
0.156,0.228,13.85,24.053,83.0,12.65,39.25
-0.189,0.228,13.82,24.022,83.0,12.65,39.5
-0.01,0.124,13.763,23.96,83.0,12.65,39.8
0.163,0.104,13.761,23.957,83.0,12.65,39.82
0.125,0.104,13.733,23.928,83.0,12.64,39.85
-0.095,0.124,13.704,23.898,91.0,12.62,39.78
-0.097,0.124,13.677,23.869,91.0,12.62,39.7
-0.092,0.166,13.645,23.839,91.0,12.62,39.57
-0.051,0.166,13.617,23.814,91.0,12.62,39.33
-0.113,0.124,13.589,23.785,91.0,12.62,39.06
0.187,0.29,13.562,23.76,91.0,12.62,38.88
-0.132,0.269,13.533,23.733,91.0,12.62,38.71
0.012,0.124,13.507,23.703,91.0,12.62,38.52
0.187,0.124,13.481,23.672,91.0,12.62,38.26
0.176,0.124,13.455,23.641,91.0,12.62,38.03
-0.062,0.145,13.428,23.613,91.0,12.62,37.82
-0.069,0.145,13.403,23.583,91.0,12.62,37.61
-0.06,0.166,13.378,23.554,91.0,12.62,37.36
-0.025,0.166,13.353,23.524,91.0,12.62,37.01
-0.071,0.124,13.328,23.498,91.0,12.62,36.67
0.07,0.352,13.305,23.473,91.0,12.62,36.43
0.055,0.311,13.281,23.447,91.0,12.62,36.23
0.023,0.124,13.256,23.419,91.0,12.61,36.08
0.173,0.104,13.233,23.392,91.0,12.61,35.88
0.249,0.166,13.209,23.366,91.0,12.61,35.74
-0.02,0.124,13.188,23.343,91.0,12.61,35.63
-0.047,0.145,13.164,23.323,91.0,12.61,35.53
-0.045,0.124,13.141,23.306,91.0,12.61,35.46
-0.035,0.124,13.117,23.294,91.0,12.61,35.35
-0.017,0.166,13.093,23.291,91.0,12.61,35.15
-0.087,0.166,13.071,23.295,91.0,12.6,35.03
0.215,0.311,13.05,23.309,91.0,12.61,34.97
0.001,0.166,13.027,23.33,91.0,12.6,34.99
0.106,0.124,13.005,23.365,91.0,12.6,34.96
0.29,0.124,12.983,23.411,91.0,12.6,34.95
0.079,0.145,12.96,23.471,91.0,12.6,34.97
-0.042,0.124,12.939,23.536,89.0,12.6,34.98
-0.038,0.124,12.919,23.607,89.0,12.6,34.94
-0.043,0.124,12.899,23.679,89.0,12.6,34.9
-0.046,0.145,12.881,23.753,89.0,12.6,34.78
-0.016,0.145,12.863,23.822,89.0,12.6,34.84
-0.086,0.166,12.848,23.886,89.0,12.6,34.87
0.197,0.311,12.837,23.935,89.0,12.6,34.9
-0.021,0.207,12.827,23.973,89.0,12.6,34.91
0.076,0.166,12.821,24.003,89.0,12.6,34.91
0.261,0.166,12.82,24.022,89.0,12.6,34.98
0.093,0.124,12.823,24.032,89.0,12.6,35.15
-0.055,0.166,12.829,24.034,83.0,12.6,35.4
-0.058,0.166,12.841,24.025,83.0,12.6,35.67
-0.062,0.145,12.856,24.009,83.0,12.6,35.95
-0.07,0.124,12.875,23.988,83.0,12.6,36.06
-0.044,0.145,12.898,23.961,83.0,12.6,36.28
-0.112,0.166,12.926,23.93,83.0,12.6,36.58
0.15,0.331,12.954,23.892,83.0,12.6,36.97
-0.079,0.166,12.984,23.851,83.0,12.6,37.28
0.044,0.145,13.016,23.809,83.0,12.6,37.58
0.223,0.207,13.047,23.764,83.0,12.6,37.88
0.07,0.145,13.079,23.721,83.0,12.6,38.19
-0.09,0.166,13.11,23.675,84.0,12.6,38.49
-0.083,0.104,13.14,23.63,84.0,12.6,38.79
-0.087,0.124,13.167,23.587,84.0,12.59,39.03
-0.064,0.145,13.194,23.544,84.0,12.59,39.15
-0.104,0.166,13.219,23.504,84.0,12.59,39.3
-0.042,0.249,13.24,23.473,84.0,12.59,39.47
0.046,0.228,13.26,23.441,84.0,12.59,39.68
-0.011,0.166,13.278,23.406,84.0,12.59,39.77
0.122,0.104,13.293,23.369,84.0,12.59,39.74
0.223,0.145,13.304,23.335,84.0,12.59,39.63
-0.036,0.145,13.314,23.303,84.0,12.59,39.53
-0.081,0.124,13.321,23.27,87.0,12.59,39.39
-0.062,0.145,13.323,23.239,87.0,12.59,39.23
-0.072,0.124,13.326,23.208,87.0,12.59,38.95
-0.068,0.166,13.325,23.178,87.0,12.59,38.64
-0.034,0.145,13.322,23.154,87.0,12.59,38.39
-0.099,0.166,13.317,23.128,87.0,12.58,38.16
0.209,0.29,13.311,23.099,87.0,12.58,37.97
-0.023,0.145,13.301,23.073,87.0,12.58,37.7
0.086,0.124,13.291,23.048,87.0,12.58,37.43
0.273,0.207,13.278,23.026,87.0,12.58,37.21
0.086,0.186,13.263,23.001,87.0,12.58,37.02
-0.051,0.228,13.245,22.978,81.0,12.58,36.84
-0.036,0.124,13.225,22.955,81.0,12.58,36.68
-0.036,0.166,13.201,22.938,81.0,12.58,36.54
-0.048,0.166,13.174,22.918,81.0,12.59,36.19
-0.034,0.104,13.147,22.899,81.0,12.58,35.95
-0.014,0.186,13.122,22.881,81.0,12.59,35.71
-0.081,0.207,13.098,22.862,81.0,12.58,35.48
0.216,0.331,13.081,22.841,81.0,12.58,35.27
0.024,0.145,13.06,22.822,81.0,12.58,35.01
0.121,0.186,13.035,22.819,81.0,12.58,34.86
0.298,0.145,13.014,22.847,81.0,12.58,34.81
0.079,0.145,12.994,22.859,81.0,12.58,34.74
-0.032,0.104,12.975,22.859,78.0,12.58,34.65
-0.03,0.166,12.958,22.847,78.0,12.58,34.63
-0.037,0.124,12.943,22.838,78.0,12.58,34.65
-0.056,0.124,12.928,22.824,78.0,12.58,34.51
-0.063,0.166,12.913,22.814,78.0,12.58,34.46
-0.067,0.166,12.901,22.813,78.0,12.58,34.56
-0.013,0.186,12.892,22.84,78.0,12.58,34.64
-0.077,0.145,12.875,22.86,78.0,12.58,34.83
-0.059,0.145,12.853,22.88,78.0,12.58,35.07
-0.03,0.166,12.835,22.913,78.0,12.58,35.23
0.036,0.145,12.816,22.948,78.0,12.58,35.47
0.202,0.124,12.801,22.986,78.0,12.58,35.87
0.141,0.124,12.787,23.017,78.0,12.58,36.26
-0.079,0.124,12.763,23.069,78.0,12.58,37.02
-0.091,0.104,12.761,23.073,78.0,12.58,37.07
-0.095,0.145,12.749,23.093,78.0,12.58,37.45
-0.112,0.124,12.737,23.106,78.0,12.58,37.75
-0.077,0.145,12.725,23.121,78.0,12.58,38.08
-0.144,0.124,12.717,23.14,78.0,12.58,38.46
0.138,0.249,12.71,23.147,78.0,12.58,38.86
-0.163,0.166,12.707,23.147,78.0,12.58,39.19
0.001,0.124,12.703,23.141,78.0,12.58,39.44
0.184,0.145,12.703,23.137,78.0,12.58,39.65
0.107,0.124,12.707,23.132,78.0,12.56,39.87
-0.09,0.104,12.713,23.124,78.0,12.56,40.04
-0.091,0.124,12.724,23.114,78.0,12.56,40.06
-0.082,0.124,12.736,23.1,78.0,12.56,39.86
-0.076,0.104,12.749,23.085,78.0,12.56,39.47
-0.055,0.124,12.765,23.067,78.0,12.56,39.1
-0.118,0.124,12.783,23.05,78.0,12.56,38.84
0.176,0.228,12.804,23.033,78.0,12.56,38.65
-0.032,0.145,12.825,23.01,78.0,12.56,38.44
0.078,0.124,12.847,22.986,78.0,12.56,38.2
0.267,0.124,12.867,22.959,78.0,12.56,37.99
0.056,0.145,12.887,22.934,78.0,12.56,37.82
-0.064,0.124,12.904,22.904,86.0,12.56,37.64
-0.057,0.124,12.924,22.875,86.0,12.56,37.45
-0.06,0.145,12.942,22.847,86.0,12.56,37.23
-0.072,0.124,12.959,22.818,86.0,12.56,36.86
-0.02,0.166,12.973,22.791,86.0,12.55,36.6
-0.073,0.166,12.986,22.763,86.0,12.56,36.42
0.223,0.331,12.996,22.733,86.0,12.55,36.28
-0.084,0.207,13.005,22.707,86.0,12.55,36.14
0.044,0.124,13.011,22.683,86.0,12.55,35.97
0.204,0.124,13.017,22.655,86.0,12.55,35.82
0.221,0.104,13.022,22.63,86.0,12.55,35.69
-0.032,0.104,13.024,22.604,86.0,12.55,35.61
-0.047,0.124,13.024,22.578,80.0,12.55,35.49
-0.047,0.186,13.021,22.551,80.0,12.55,35.38
-0.063,0.124,13.017,22.526,80.0,12.55,35.2
-0.072,0.145,13.015,22.505,80.0,12.55,34.97
-0.025,0.145,13.007,22.485,80.0,12.55,34.87
-0.064,0.186,13.001,22.465,80.0,12.55,34.81
0.122,0.269,12.992,22.443,80.0,12.55,34.81
-0.003,0.207,12.983,22.423,80.0,12.55,34.78
0.025,0.124,12.974,22.403,80.0,12.55,34.78
0.168,0.145,12.961,22.384,80.0,12.55,34.77
0.244,0.145,12.95,22.368,80.0,12.55,34.75
-0.027,0.145,12.938,22.348,80.0,12.55,34.73
-0.056,0.145,12.925,22.331,76.0,12.55,34.72
-0.053,0.124,12.91,22.312,76.0,12.55,34.71
-0.063,0.104,12.895,22.295,76.0,12.55,34.67
-0.076,0.124,12.883,22.279,76.0,12.55,34.51
-0.083,0.104,12.868,22.265,76.0,12.55,34.43
-0.028,0.145,12.853,22.249,76.0,12.55,34.43
-0.087,0.145,12.837,22.232,76.0,12.55,34.49
0.209,0.29,12.822,22.215,76.0,12.55,34.49
-0.097,0.166,12.806,22.198,76.0,12.55,34.52
0.024,0.104,12.791,22.183,76.0,12.55,34.65
0.189,0.145,12.776,22.165,76.0,12.55,34.84
0.173,0.124,12.76,22.151,76.0,12.55,35.09
-0.064,0.104,12.744,22.135,72.0,12.55,35.34
-0.079,0.145,12.729,22.118,72.0,12.55,35.59
-0.081,0.145,12.714,22.103,72.0,12.54,35.89
-0.1,0.124,12.699,22.088,72.0,12.54,36.05
-0.112,0.166,12.684,22.073,72.0,12.54,36.24
-0.078,0.145,12.669,22.061,72.0,12.54,36.55
-0.097,0.124,12.654,22.046,72.0,12.54,36.91
-0.031,0.269,12.639,22.032,72.0,12.54,37.27
0.155,0.559,12.624,22.019,72.0,12.53,37.55
-0.001,0.228,12.61,22.004,72.0,12.53,37.82
0.105,0.124,12.596,21.991,72.0,12.53,38.07
0.216,0.124,12.582,21.976,72.0,12.53,38.33
-0.048,0.145,12.57,21.964,72.0,12.53,38.61
-0.095,0.104,12.542,21.938,75.0,12.53,39.04
-0.086,0.145,12.541,21.937,75.0,12.53,39.06
-0.098,0.104,12.528,21.925,75.0,12.53,39.13
-0.058,0.145,12.515,21.915,75.0,12.53,39.12
-0.105,0.166,12.501,21.905,75.0,12.53,39.1
0.101,0.29,12.488,21.894,75.0,12.53,39.06
-0.062,0.186,12.475,21.883,75.0,12.53,39.09
0.001,0.166,12.46,21.871,75.0,12.53,39.08
0.149,0.124,12.448,21.858,75.0,12.53,38.97
0.209,0.104,12.436,21.848,75.0,12.53,38.83
-0.051,0.124,12.423,21.835,75.0,12.53,38.73
-0.075,0.124,12.411,21.822,85.0,12.53,38.6
-0.064,0.124,12.398,21.81,85.0,12.53,38.43
-0.071,0.124,12.386,21.796,85.0,12.53,38.25
-0.034,0.145,12.373,21.785,85.0,12.53,38.03
-0.078,0.145,12.362,21.775,85.0,12.53,37.85
0.112,0.249,12.351,21.766,85.0,12.53,37.65
-0.008,0.207,12.339,21.754,85.0,12.53,37.5
0.017,0.145,12.327,21.743,85.0,12.53,37.31
0.167,0.145,12.315,21.731,85.0,12.53,37.15
0.236,0.104,12.305,21.721,85.0,12.53,36.98
-0.027,0.104,12.294,21.711,85.0,12.53,36.82
-0.049,0.145,12.282,21.703,84.0,12.53,36.67
-0.04,0.124,12.271,21.7,84.0,12.53,36.56
-0.043,0.145,12.262,21.701,84.0,12.53,36.37
-0.003,0.166,12.25,21.711,84.0,12.53,36.11
-0.069,0.124,12.243,21.729,84.0,12.53,35.96
0.23,0.352,12.232,21.754,84.0,12.53,35.83
-0.051,0.145,12.223,21.785,84.0,12.53,35.75
0.074,0.124,12.213,21.82,84.0,12.53,35.64
0.261,0.145,12.202,21.859,84.0,12.53,35.55
0.167,0.104,12.193,21.898,84.0,12.53,35.48
-0.031,0.124,12.183,21.937,87.0,12.53,35.43
-0.03,0.145,12.175,21.975,87.0,12.53,35.35
-0.032,0.145,12.166,22.011,87.0,12.53,35.29
-0.031,0.124,12.158,22.045,87.0,12.53,35.15
-0.005,0.186,12.152,22.075,87.0,12.53,34.97
-0.073,0.145,12.147,22.101,87.0,12.53,34.9
0.198,0.414,12.142,22.121,87.0,12.53,34.88
-0.021,0.145,12.14,22.134,87.0,12.53,34.88
0.081,0.124,12.139,22.144,87.0,12.53,34.83
0.268,0.124,12.139,22.15,87.0,12.53,34.81
0.113,0.124,12.14,22.15,87.0,12.53,34.81
-0.054,0.145,12.142,22.144,85.0,12.53,34.83
-0.049,0.145,12.147,22.136,85.0,12.53,34.81
-0.057,0.124,12.152,22.123,85.0,12.53,34.8
-0.059,0.145,12.157,22.107,85.0,12.53,34.72
-0.043,0.186,12.163,22.091,85.0,12.53,34.61
-0.115,0.166,12.171,22.072,85.0,12.53,34.63
0.166,0.352,12.18,22.051,85.0,12.53,34.77
-0.043,0.145,12.187,22.026,85.0,12.53,34.96
0.05,0.104,12.195,22.004,85.0,12.51,35.13
0.228,0.124,12.202,21.979,85.0,12.53,35.36
0.045,0.104,12.209,21.957,85.0,12.51,35.67
-0.099,0.145,12.218,21.932,84.0,12.53,35.99
-0.101,0.166,12.224,21.909,84.0,12.53,36.3
-0.109,0.124,12.229,21.886,84.0,12.51,36.62
-0.095,0.145,12.235,21.866,84.0,12.53,36.81
-0.116,0.186,12.242,21.848,84.0,12.51,37.09
-0.144,0.186,12.246,21.835,84.0,12.51,37.47
0.059,0.29,12.248,21.821,84.0,12.51,37.86
-0.072,0.166,12.251,21.811,84.0,12.51,38.19
0.042,0.186,12.253,21.805,84.0,12.51,38.47
0.184,0.145,12.256,21.802,86.0,12.51,38.73
-0.072,0.124,12.253,21.802,86.0,12.51,39.02
-0.145,0.166,12.256,21.802,86.0,12.51,39.32
-0.129,0.124,12.253,21.804,86.0,12.51,39.58
-0.123,0.145,12.253,21.807,86.0,12.51,39.75
-0.104,0.145,12.251,21.812,86.0,12.51,39.8
-0.166,0.186,12.248,21.817,86.0,12.51,39.93
0.107,0.29,12.244,21.821,86.0,12.5,40.0
-0.113,0.145,12.239,21.821,86.0,12.5,39.96
0.01,0.124,12.236,21.821,86.0,12.5,39.79
0.195,0.186,12.232,21.817,86.0,12.5,39.56
0.034,0.166,12.225,21.812,86.0,12.5,39.32
-0.108,0.104,12.219,21.806,90.0,12.5,39.13
-0.095,0.145,12.212,21.799,90.0,12.5,38.96
-0.093,0.145,12.204,21.788,90.0,12.5,38.76
-0.103,0.124,12.198,21.778,90.0,12.5,38.45
-0.053,0.207,12.189,21.769,90.0,12.5,38.18
-0.114,0.166,12.182,21.761,90.0,12.5,37.94
0.208,0.29,12.175,21.754,90.0,12.5,37.74
-0.118,0.186,12.167,21.748,90.0,12.5,37.53
0.021,0.145,12.158,21.74,90.0,12.5,37.3
0.2,0.104,12.151,21.738,90.0,12.5,37.08
0.145,0.145,12.143,21.735,90.0,12.5,36.87
-0.071,0.145,12.133,21.734,82.0,12.5,36.66
-0.074,0.145,12.126,21.737,82.0,12.5,36.43
-0.069,0.124,12.118,21.74,82.0,12.5,36.23
-0.081,0.104,12.11,21.749,82.0,12.5,35.92
-0.069,0.145,12.101,21.758,82.0,12.5,35.62
-0.056,0.166,12.094,21.775,82.0,12.5,35.46
-0.117,0.145,12.085,21.788,82.0,12.49,35.35
0.172,0.311,12.078,21.802,82.0,12.5,35.29
-0.028,0.166,12.069,21.817,82.0,12.49,35.18
0.07,0.145,12.061,21.831,82.0,12.49,35.1
0.262,0.124,12.054,21.843,82.0,12.49,35.05
0.061,0.104,12.046,21.85,82.0,12.49,35.0
-0.065,0.124,12.039,21.855,80.0,12.49,34.95
-0.057,0.124,12.031,21.856,80.0,12.49,34.89
-0.063,0.145,12.025,21.855,80.0,12.49,34.86
-0.076,0.145,12.018,21.85,80.0,12.49,34.71
-0.082,0.166,12.013,21.841,80.0,12.49,34.6
-0.082,0.145,12.008,21.831,80.0,12.49,34.58
-0.033,0.186,12.003,21.82,80.0,12.49,34.61
-0.084,0.145,11.997,21.807,80.0,12.49,34.68
0.23,0.311,11.991,21.793,80.0,12.49,34.75
-0.079,0.207,11.988,21.779,80.0,12.49,34.86
0.037,0.166,11.983,21.766,80.0,12.48,35.05
0.197,0.124,11.978,21.756,80.0,12.48,35.29
0.196,0.145,11.973,21.746,80.0,12.48,35.58
-0.05,0.124,11.971,21.736,80.0,12.48,35.93
-0.066,0.124,11.966,21.729,69.0,12.48,36.28
-0.065,0.166,11.962,21.721,69.0,12.49,36.62
-0.08,0.166,11.958,21.714,69.0,12.49,36.81
-0.08,0.166,11.953,21.708,69.0,12.49,37.01
-0.058,0.166,11.951,21.702,69.0,12.48,37.33
-0.121,0.145,11.946,21.694,69.0,12.49,37.7
0.147,0.228,11.941,21.686,69.0,12.49,38.05
-0.086,0.166,11.938,21.677,69.0,12.49,38.28
0.029,0.124,11.933,21.667,69.0,12.49,38.51
0.215,0.166,11.928,21.657,69.0,12.49,38.71
0.064,0.124,11.926,21.643,69.0,12.49,38.93
-0.101,0.166,11.921,21.631,79.0,12.49,39.18
-0.1,0.124,11.918,21.615,79.0,12.49,39.4
-0.09,0.124,11.914,21.599,79.0,12.49,39.52
-0.078,0.145,11.909,21.584,79.0,12.49,39.53
-0.071,0.145,11.906,21.566,79.0,12.48,39.52
-0.13,0.186,11.901,21.55,79.0,12.49,39.4
0.16,0.373,11.899,21.534,79.0,12.48,39.24
-0.039,0.124,11.894,21.517,79.0,12.49,39.03
0.069,0.104,11.891,21.5,79.0,12.49,38.79
0.258,0.166,11.886,21.489,79.0,12.48,38.54
0.04,0.145,11.883,21.484,79.0,12.48,38.32
-0.075,0.145,11.879,21.487,85.0,12.48,38.14
-0.066,0.145,11.874,21.501,85.0,12.48,37.94
-0.065,0.145,11.869,21.529,85.0,12.48,37.72
-0.076,0.145,11.864,21.569,85.0,12.48,37.39
-0.027,0.166,11.859,21.622,85.0,12.48,37.13
-0.083,0.145,11.855,21.687,85.0,12.48,36.92
0.2,0.311,11.849,21.756,85.0,12.48,36.75
-0.075,0.186,11.844,21.828,85.0,12.48,36.6
0.034,0.104,11.839,21.901,85.0,12.48,36.43
0.194,0.124,11.834,21.968,85.0,12.48,36.29
0.221,0.166,11.832,22.033,85.0,12.48,36.17
-0.033,0.104,11.828,22.088,85.0,12.48,36.03
-0.05,0.104,11.826,22.136,80.0,12.48,35.88
-0.043,0.145,11.826,22.174,80.0,12.48,35.75
-0.058,0.124,11.827,22.203,80.0,12.48,35.58
-0.069,0.124,11.829,22.222,80.0,12.48,35.37
-0.078,0.124,11.836,22.235,80.0,12.48,35.28
0.119,0.311,11.845,22.237,80.0,12.48,35.21
0.008,0.228,11.858,22.231,80.0,12.48,35.18
0.03,0.145,11.873,22.219,80.0,12.48,35.11
0.181,0.124,11.907,22.175,80.0,12.48,35.31
0.249,0.145,11.91,22.171,80.0,12.48,35.32
-0.024,0.145,11.93,22.146,80.0,12.48,35.32
-0.052,0.124,11.953,22.113,83.0,12.48,35.28
-0.051,0.124,11.977,22.077,83.0,12.48,35.21
-0.059,0.124,12.002,22.04,83.0,12.48,35.12
-0.045,0.124,12.028,22.0,83.0,12.48,34.95
-0.049,0.145,12.053,21.959,83.0,12.48,34.88
-0.105,0.145,12.078,21.919,83.0,12.48,34.92
0.174,0.311,12.105,21.879,83.0,12.48,35.1
-0.011,0.166,12.127,21.839,83.0,12.48,35.27
0.083,0.124,12.151,21.801,83.0,12.48,35.49
0.253,0.145,12.171,21.764,83.0,12.48,35.78
0.012,0.166,12.191,21.728,83.0,12.48,36.1
-0.085,0.145,12.209,21.691,82.0,12.48,36.44
-0.086,0.166,12.227,21.659,82.0,12.48,36.76
-0.094,0.166,12.24,21.63,82.0,12.48,37.07
-0.073,0.186,12.253,21.599,82.0,12.48,37.25
-0.117,0.145,12.265,21.574,82.0,12.48,37.54
-0.065,0.228,12.275,21.549,82.0,12.48,37.93
0.017,0.269,12.282,21.524,82.0,12.48,38.33
-0.051,0.145,12.29,21.502,82.0,12.48,38.61
0.079,0.145,12.296,21.481,82.0,12.48,38.85
0.185,0.124,12.299,21.462,82.0,12.48,39.11
-0.083,0.186,12.3,21.445,82.0,12.48,39.43
-0.133,0.145,12.3,21.424,85.0,12.48,39.73
-0.121,0.145,12.3,21.407,85.0,12.48,40.01
-0.097,0.186,12.299,21.39,85.0,12.48,40.17
-0.117,0.166,12.295,21.375,85.0,12.48,40.29
-0.143,0.186,12.29,21.36,85.0,12.48,40.47
0.093,0.249,12.286,21.345,85.0,12.47,40.62
-0.052,0.186,12.28,21.328,85.0,12.47,40.7
0.068,0.145,12.272,21.31,85.0,12.47,40.56
0.22,0.145,12.263,21.295,85.0,12.47,40.32
-0.026,0.124,12.253,21.28,85.0,12.47,40.11
-0.092,0.145,12.244,21.266,91.0,12.47,39.9
-0.081,0.145,12.235,21.253,91.0,12.47,39.72
-0.079,0.166,12.225,21.239,91.0,12.47,39.5
-0.039,0.145,12.214,21.227,91.0,12.47,39.21
-0.103,0.166,12.203,21.221,91.0,12.47,38.99
0.21,0.311,12.19,21.216,91.0,12.47,38.79
-0.105,0.186,12.18,21.216,91.0,12.47,38.64
0.035,0.145,12.168,21.223,91.0,12.47,38.44
0.216,0.145,12.156,21.236,91.0,12.47,38.26
0.137,0.145,12.143,21.255,91.0,12.47,38.07
-0.065,0.124,12.132,21.279,88.0,12.47,37.85
-0.066,0.145,12.121,21.31,88.0,12.47,37.62
-0.062,0.166,12.108,21.343,88.0,12.47,37.41
-0.076,0.124,12.097,21.376,88.0,12.47,37.08
-0.03,0.166,12.086,21.408,88.0,12.45,36.78
-0.094,0.145,12.074,21.441,88.0,12.45,36.58
0.223,0.311,12.064,21.47,88.0,12.47,36.43
-0.107,0.207,12.054,21.497,88.0,12.47,36.3
0.03,0.104,12.044,21.521,88.0,12.45,36.15
0.2,0.124,12.034,21.54,88.0,12.45,36.02
0.187,0.124,12.028,21.56,88.0,12.45,35.91
-0.052,0.124,12.02,21.58,84.0,12.45,35.8
-0.056,0.104,12.015,21.6,84.0,12.45,35.68
-0.054,0.124,12.01,21.62,84.0,12.45,35.56
-0.066,0.124,12.006,21.641,84.0,12.45,35.38
-0.079,0.145,12.003,21.668,84.0,12.45,35.14
-0.08,0.145,12.002,21.699,84.0,12.45,35.01
-0.039,0.145,12.001,21.73,84.0,12.45,34.97
-0.068,0.145,12.001,21.768,84.0,12.45,35.0
0.012,0.269,12.003,21.799,84.0,12.45,34.97
0.111,0.228,12.005,21.828,84.0,12.45,34.94
0.02,0.145,12.008,21.852,84.0,12.45,34.92
0.145,0.124,12.013,21.868,84.0,12.45,34.91
0.277,0.186,12.019,21.88,84.0,12.45,34.9
0.006,0.166,12.026,21.884,84.0,12.45,34.87
-0.044,0.145,12.038,21.884,69.0,12.45,34.83
-0.035,0.104,12.049,21.878,69.0,12.45,34.81
-0.049,0.104,12.063,21.867,69.0,12.45,34.76
-0.063,0.166,12.079,21.852,69.0,12.45,34.61
-0.07,0.166,12.096,21.834,69.0,12.45,34.54
-0.072,0.145,12.116,21.81,69.0,12.45,34.55
-0.028,0.145,12.137,21.784,69.0,12.45,34.63
-0.06,0.124,12.159,21.753,69.0,12.45,34.71
0.033,0.311,12.182,21.72,69.0,12.45,34.82
0.099,0.29,12.206,21.687,69.0,12.45,35.03
0.014,0.124,12.229,21.651,69.0,12.45,35.29
0.139,0.145,12.252,21.616,69.0,12.45,35.59
0.25,0.124,12.274,21.578,69.0,12.45,35.91
-0.013,0.124,12.295,21.54,69.0,12.45,36.26
-0.072,0.145,12.315,21.502,67.0,12.45,36.57
-0.066,0.145,12.334,21.467,67.0,12.45,36.89
-0.079,0.166,12.351,21.432,67.0,12.45,37.11
-0.095,0.124,12.366,21.397,67.0,12.45,37.27
-0.09,0.166,12.379,21.365,67.0,12.45,37.56
-0.064,0.166,12.389,21.333,67.0,12.45,37.87
-0.132,0.186,12.398,21.301,67.0,12.45,38.2
0.138,0.269,12.406,21.272,67.0,12.45,38.47
-0.071,0.166,12.411,21.244,67.0,12.45,38.7
0.04,0.166,12.413,21.218,67.0,12.45,38.91
0.225,0.186,12.417,21.193,67.0,12.45,39.16
0.044,0.145,12.417,21.17,67.0,12.45,39.44
-0.1,0.145,12.417,21.146,74.0,12.45,39.73
-0.094,0.166,12.413,21.124,74.0,12.45,39.93
-0.087,0.124,12.411,21.103,74.0,12.45,40.05
-0.088,0.124,12.406,21.083,74.0,12.45,40.04
-0.058,0.145,12.398,21.066,74.0,12.45,39.98
-0.117,0.145,12.392,21.046,74.0,12.45,39.86
0.172,0.29,12.384,21.028,74.0,12.45,39.76
-0.066,0.124,12.377,21.011,74.0,12.45,39.57
0.056,0.145,12.368,20.995,74.0,12.45,39.34
0.251,0.145,12.36,20.977,74.0,12.45,39.09
0.103,0.145,12.347,20.962,74.0,12.45,38.9
-0.059,0.186,12.337,20.947,84.0,12.45,38.7
-0.058,0.124,12.326,20.932,84.0,12.45,38.48
-0.053,0.166,12.315,20.917,84.0,12.45,38.25
-0.066,0.166,12.302,20.903,84.0,12.45,37.9
-0.071,0.124,12.29,20.89,84.0,12.45,37.6
-0.021,0.166,12.277,20.876,84.0,12.45,37.4
-0.065,0.104,12.264,20.866,84.0,12.45,37.22
0.22,0.29,12.252,20.856,84.0,12.45,37.06
-0.061,0.166,12.238,20.849,84.0,12.45,36.89
0.039,0.124,12.224,20.839,84.0,12.45,36.75
0.196,0.145,12.21,20.828,84.0,12.45,36.62
0.24,0.124,12.197,20.817,84.0,12.45,36.51
-0.022,0.104,12.184,20.808,84.0,12.45,36.4
-0.04,0.207,12.172,20.799,75.0,12.45,36.29
-0.033,0.166,12.16,20.789,75.0,12.45,36.19
-0.046,0.166,12.147,20.777,75.0,12.45,36.01
-0.055,0.124,12.133,20.766,75.0,12.45,35.76
-0.034,0.124,12.121,20.754,75.0,12.45,35.63
-0.017,0.166,12.108,20.745,75.0,12.45,35.55
-0.076,0.166,12.096,20.735,75.0,12.45,35.53
0.21,0.269,12.085,20.722,75.0,12.45,35.47
0.013,0.124,12.071,20.71,75.0,12.45,35.42
0.109,0.124,12.06,20.701,75.0,12.45,35.38
0.294,0.145,12.048,20.69,75.0,12.45,35.33
0.083,0.083,12.035,20.68,75.0,12.45,35.28
-0.042,0.124,12.024,20.67,74.0,12.44,35.24
-0.034,0.104,12.011,20.658,74.0,12.44,35.21
-0.042,0.145,12.002,20.645,74.0,12.44,35.2
-0.059,0.145,11.989,20.635,74.0,12.44,35.06
-0.065,0.166,11.979,20.628,74.0,12.44,34.94
-0.051,0.124,11.969,20.62,74.0,12.44,34.92
-0.022,0.145,11.959,20.61,74.0,12.44,34.97
-0.087,0.124,11.948,20.6,74.0,12.44,35.01
0.198,0.352,11.937,20.59,74.0,12.44,34.99
-0.004,0.166,11.927,20.583,74.0,12.44,34.99
0.087,0.145,11.917,20.573,74.0,12.44,35.0
0.275,0.145,11.907,20.566,74.0,12.44,35.03
0.095,0.124,11.897,20.557,74.0,12.44,35.03
-0.045,0.124,11.887,20.55,71.0,12.44,35.04
-0.042,0.145,11.877,20.543,71.0,12.44,35.04
-0.052,0.124,11.87,20.536,71.0,12.44,35.05
-0.068,0.145,11.86,20.528,71.0,12.44,34.95
-0.076,0.166,11.85,20.52,71.0,12.44,34.86
-0.033,0.145,11.842,20.511,71.0,12.44,34.87
-0.073,0.104,11.833,20.503,71.0,12.44,34.99
-0.115,0.331,11.824,20.495,71.0,12.44,35.17
-0.096,0.373,11.815,20.487,71.0,12.44,35.31
0.013,0.145,11.805,20.48,71.0,12.44,35.53
0.144,0.166,11.798,20.471,71.0,12.44,35.78
0.233,0.145,11.789,20.464,71.0,12.44,36.05
-0.026,0.145,11.773,20.45,71.0,12.44,36.57
-0.066,0.124,11.772,20.45,71.0,12.44,36.61
-0.066,0.145,11.763,20.443,71.0,12.44,36.85
-0.083,0.166,11.755,20.436,71.0,12.44,37.06
-0.093,0.145,11.748,20.43,71.0,12.44,37.19
-0.055,0.145,11.74,20.425,71.0,12.44,37.47
-0.117,0.166,11.732,20.42,71.0,12.44,37.77
0.16,0.269,11.723,20.413,71.0,12.44,38.08
-0.126,0.124,11.716,20.408,71.0,12.44,38.32
0.014,0.145,11.707,20.403,71.0,12.43,38.59
0.187,0.166,11.701,20.398,71.0,12.43,38.83
-0.01,0.186,11.692,20.393,71.0,12.43,39.1
-0.093,0.249,11.685,20.391,71.0,12.43,39.35
-0.09,0.145,11.677,20.383,71.0,12.43,39.59
-0.081,0.166,11.671,20.381,71.0,12.43,39.78
-0.06,0.145,11.662,20.373,71.0,12.43,39.87
-0.084,0.166,11.649,20.364,71.0,12.44,40.02
-0.077,0.186,11.648,20.365,71.0,12.43,40.02
0.089,0.269,11.641,20.358,71.0,12.43,40.03
-0.016,0.104,11.634,20.353,71.0,12.43,39.94
0.108,0.124,11.628,20.346,71.0,12.43,39.74
0.244,0.145,11.62,20.341,71.0,12.43,39.48
-0.006,0.124,11.613,20.333,71.0,12.43,39.26
-0.067,0.166,11.606,20.328,88.0,12.43,39.08
-0.06,0.145,11.599,20.321,88.0,12.43,38.93
-0.067,0.145,11.593,20.313,88.0,12.43,38.72
-0.028,0.124,11.585,20.307,88.0,12.43,38.42
0.129,0.331,11.58,20.301,88.0,12.43,38.18
0.224,0.539,11.575,20.294,88.0,12.43,37.97
-0.012,0.207,11.569,20.287,88.0,12.43,37.79
0.017,0.124,11.563,20.281,94.0,12.43,37.61
0.16,0.124,11.557,20.275,94.0,12.43,37.42
0.234,0.145,11.544,20.266,94.0,12.43,37.01
-0.027,0.145,11.543,20.268,94.0,12.43,36.98
-0.048,0.124,11.538,20.266,94.0,12.43,36.75
-0.047,0.145,11.531,20.266,94.0,12.43,36.56
-0.062,0.104,11.523,20.269,94.0,12.43,36.33
-0.016,0.166,11.518,20.275,94.0,12.43,36.01
-0.078,0.145,11.511,20.286,94.0,12.43,35.84
0.213,0.29,11.507,20.297,94.0,12.43,35.73
-0.081,0.207,11.502,20.312,94.0,12.43,35.7
0.03,0.186,11.496,20.328,94.0,12.43,35.62
0.186,0.145,11.491,20.342,94.0,12.43,35.54
0.203,0.145,11.483,20.356,94.0,12.43,35.49
-0.044,0.104,11.479,20.367,94.0,12.43,35.46
-0.057,0.145,11.474,20.379,78.0,12.43,35.41
-0.059,0.166,11.47,20.392,78.0,12.43,35.35
-0.074,0.124,11.468,20.401,78.0,12.43,35.25
-0.085,0.145,11.465,20.41,78.0,12.43,35.08
-0.07,0.124,11.463,20.418,78.0,12.43,35.03
-0.043,0.166,11.463,20.423,78.0,12.43,34.99
-0.107,0.166,11.463,20.427,78.0,12.43,34.99
0.172,0.29,11.463,20.433,78.0,12.43,34.98
-0.031,0.145,11.464,20.446,78.0,12.43,35.0
0.058,0.124,11.466,20.453,78.0,12.43,34.99
0.242,0.145,11.469,20.454,78.0,12.43,34.96
0.09,0.104,11.473,20.45,78.0,12.43,34.95
-0.063,0.104,11.476,20.445,73.0,12.43,34.96
-0.056,0.124,11.48,20.443,73.0,12.43,34.94
-0.068,0.145,11.483,20.438,73.0,12.43,34.92
-0.085,0.186,11.488,20.429,73.0,12.43,34.76
-0.086,0.186,11.491,20.419,73.0,12.43,34.65
-0.046,0.166,11.496,20.408,73.0,12.43,34.76
-0.111,0.145,11.498,20.393,73.0,12.43,34.99
0.173,0.352,11.502,20.376,73.0,12.43,35.23
-0.099,0.145,11.505,20.361,73.0,12.43,35.44
0.017,0.145,11.507,20.343,73.0,12.43,35.73
0.185,0.145,11.51,20.326,73.0,12.43,36.03
0.118,0.145,11.51,20.31,73.0,12.43,36.33
-0.086,0.124,11.512,20.294,76.0,12.43,36.66
-0.095,0.166,11.512,20.276,76.0,12.43,36.96
-0.096,0.145,11.51,20.261,76.0,12.43,37.22
-0.115,0.145,11.51,20.25,76.0,12.43,37.35
-0.122,0.145,11.51,20.236,76.0,12.43,37.53
-0.078,0.166,11.507,20.224,76.0,12.43,37.84
-0.142,0.166,11.506,20.209,76.0,12.43,38.16
0.145,0.249,11.503,20.195,76.0,12.43,38.45
-0.161,0.207,11.501,20.185,76.0,12.43,38.67
-0.013,0.166,11.496,20.175,76.0,12.43,38.88
0.156,0.124,11.493,20.165,76.0,12.43,39.08
0.104,0.124,11.49,20.155,76.0,12.43,39.29
-0.103,0.145,11.487,20.149,76.0,12.43,39.51
-0.105,0.186,11.482,20.145,76.0,12.43,39.71
-0.095,0.104,11.479,20.139,76.0,12.43,39.82
-0.105,0.124,11.474,20.137,76.0,12.43,39.77
-0.063,0.207,11.469,20.133,76.0,12.43,39.64
-0.121,0.124,11.464,20.128,76.0,12.43,39.47
0.192,0.269,11.457,20.122,76.0,12.43,39.33
-0.134,0.186,11.45,20.113,76.0,12.43,39.16
0.012,0.104,11.444,20.106,76.0,12.43,38.99
0.185,0.145,11.439,20.099,76.0,12.43,38.81
0.146,0.124,11.431,20.097,76.0,12.43,38.62
-0.073,0.166,11.426,20.091,84.0,12.43,38.45
-0.077,0.124,11.419,20.085,84.0,12.43,38.29
-0.073,0.124,11.414,20.078,84.0,12.43,38.1
-0.085,0.124,11.406,20.072,84.0,12.43,37.78
-0.085,0.124,11.4,20.067,84.0,12.43,37.5
-0.046,0.124,11.394,20.061,84.0,12.43,37.31
-0.107,0.104,11.387,20.055,84.0,12.43,37.16
0.193,0.29,11.38,20.051,84.0,12.43,37.02
-0.069,0.145,11.374,20.045,84.0,12.43,36.81
0.041,0.124,11.367,20.042,84.0,12.43,36.65
0.225,0.166,11.362,20.035,84.0,12.43,36.5
0.128,0.124,11.354,20.028,84.0,12.43,36.36
-0.061,0.104,11.348,20.023,78.0,12.43,36.26
-0.06,0.145,11.342,20.016,78.0,12.43,36.16
-0.062,0.124,11.337,20.01,78.0,12.43,36.06
-0.075,0.104,11.329,20.005,78.0,12.43,35.84
-0.083,0.124,11.324,19.998,78.0,12.43,35.63
-0.058,0.186,11.319,19.993,78.0,12.43,35.53
-0.049,0.124,11.313,19.988,78.0,12.43,35.48
-0.099,0.166,11.307,19.983,78.0,12.43,35.45
0.187,0.331,11.302,19.978,78.0,12.43,35.37
-0.004,0.124,11.296,19.973,78.0,12.43,35.31
0.09,0.104,11.29,19.97,78.0,12.43,35.26
0.264,0.228,11.285,19.965,78.0,12.43,35.21
0.047,0.145,11.28,19.963,78.0,12.43,35.18
-0.061,0.166,11.275,19.959,73.0,12.43,35.16
-0.06,0.104,11.27,19.957,73.0,12.43,35.14
-0.071,0.124,11.262,19.953,73.0,12.42,35.13
-0.09,0.124,11.257,19.951,73.0,12.42,34.95
-0.097,0.145,11.252,19.948,73.0,12.42,34.86
-0.1,0.186,11.247,19.946,73.0,12.42,34.86
-0.057,0.124,11.242,19.945,73.0,12.42,34.89
-0.076,0.166,11.237,19.942,73.0,12.42,34.93
-0.038,0.269,11.232,19.938,73.0,12.42,34.93
0.106,0.249,11.227,19.937,73.0,12.42,34.92
0.086,0.166,11.222,19.933,73.0,12.42,34.92
0.147,0.145,11.217,19.931,73.0,12.42,34.93
0.237,0.166,11.213,19.926,73.0,12.42,34.93
-0.013,0.124,11.208,19.923,73.0,12.42,35.0
-0.083,0.124,11.203,19.918,67.0,12.42,35.14
-0.081,0.145,11.193,19.907,67.0,12.42,35.44
-0.098,0.104,11.192,19.906,67.0,12.42,35.45
-0.116,0.145,11.188,19.901,67.0,12.42,35.51
-0.125,0.145,11.184,19.896,67.0,12.42,35.77
-0.085,0.145,11.18,19.889,67.0,12.42,36.12
-0.124,0.166,11.175,19.883,67.0,12.42,36.5
0.042,0.29,11.17,19.878,67.0,12.42,36.8
-0.08,0.269,11.165,19.871,67.0,12.4,37.09
-0.041,0.124,11.16,19.866,67.0,12.42,37.41
0.093,0.145,11.155,19.861,67.0,12.42,37.73
0.179,0.145,11.153,19.856,67.0,12.42,38.06
-0.079,0.145,11.148,19.851,67.0,12.42,38.38
-0.122,0.166,11.143,19.844,72.0,12.42,38.64
-0.113,0.186,11.138,19.839,72.0,12.4,38.88
-0.126,0.124,11.135,19.832,72.0,12.4,39.03
-0.094,0.145,11.13,19.826,72.0,12.42,39.15
-0.138,0.145,11.126,19.819,72.0,12.4,39.35
0.023,0.249,11.121,19.811,72.0,12.4,39.59
-0.077,0.186,11.116,19.806,72.0,12.4,39.82
-0.039,0.104,11.112,19.801,72.0,12.4,39.96
0.104,0.145,11.108,19.796,72.0,12.4,40.11
0.187,0.145,11.103,19.791,72.0,12.4,40.2
-0.071,0.124,11.098,19.786,72.0,12.42,40.21
-0.108,0.104,11.096,19.784,84.0,12.42,40.15
-0.095,0.166,11.091,19.779,84.0,12.4,40.02
-0.104,0.166,11.087,19.775,84.0,12.4,39.78
-0.066,0.186,11.083,19.772,84.0,12.4,39.52
-0.106,0.166,11.078,19.768,84.0,12.4,39.35
0.046,0.228,11.076,19.764,84.0,12.4,39.21
-0.001,0.207,11.071,19.763,84.0,12.42,39.08
-0.009,0.166,11.066,19.762,84.0,12.4,38.93
0.127,0.124,11.063,19.759,84.0,12.4,38.78
0.22,0.186,11.058,19.757,84.0,12.4,38.6
-0.035,0.186,11.053,19.754,84.0,12.4,38.42
-0.073,0.104,11.051,19.753,84.0,12.4,38.28
-0.066,0.145,11.046,19.749,84.0,12.4,38.09
-0.074,0.166,11.042,19.747,84.0,12.4,37.81
-0.077,0.166,11.039,19.743,84.0,12.4,37.47
-0.035,0.124,11.035,19.739,84.0,12.4,37.26
-0.094,0.145,11.031,19.737,84.0,12.4,37.0
0.219,0.394,11.026,19.732,84.0,12.4,36.82
-0.08,0.166,11.024,19.729,84.0,12.4,36.68
0.043,0.145,11.019,19.724,84.0,12.4,36.59
0.221,0.124,11.014,19.721,84.0,12.4,36.5
0.17,0.145,11.011,19.717,84.0,12.4,36.37
-0.04,0.166,11.006,19.714,84.0,12.4,36.27
-0.041,0.145,11.003,19.709,80.0,12.4,36.12
-0.039,0.145,10.999,19.704,80.0,12.4,36.02
-0.053,0.145,10.995,19.701,80.0,12.4,35.8
-0.061,0.104,10.991,19.697,80.0,12.4,35.59
-0.01,0.145,10.988,19.692,80.0,12.4,35.51
-0.068,0.145,10.984,19.689,80.0,12.4,35.44
0.235,0.29,10.98,19.687,80.0,12.4,35.41
-0.078,0.207,10.976,19.684,80.0,12.4,35.33
0.044,0.124,10.973,19.681,80.0,12.4,35.27
0.175,0.145,10.969,19.679,80.0,12.4,35.23
0.152,0.124,10.966,19.675,80.0,12.4,35.2
-0.023,0.124,10.961,19.67,80.0,12.4,35.19
-0.033,0.145,10.959,19.665,76.0,12.4,35.15
-0.032,0.145,10.954,19.661,76.0,12.4,35.14
-0.049,0.145,10.948,19.657,76.0,12.4,34.96
-0.062,0.145,10.948,19.656,76.0,12.4,34.95
-0.064,0.124,10.944,19.655,76.0,12.4,34.89
-0.029,0.166,10.939,19.651,76.0,12.4,34.91
-0.05,0.145,10.937,19.645,76.0,12.4,34.97
-0.012,0.228,10.933,19.64,76.0,12.4,34.96
0.133,0.29,10.929,19.635,76.0,12.4,34.94
0.012,0.124,10.927,19.63,76.0,12.4,34.95
0.123,0.124,10.922,19.625,76.0,12.4,34.97
0.261,0.145,10.919,19.62,76.0,12.4,35.03
0.009,0.124,10.916,19.615,76.0,12.4,35.15
-0.058,0.186,10.912,19.61,69.0,12.4,35.32
-0.054,0.145,10.908,19.603,69.0,12.4,35.51
-0.07,0.145,10.904,19.599,69.0,12.4,35.71
-0.09,0.124,10.901,19.595,69.0,12.4,35.81
-0.101,0.145,10.898,19.59,69.0,12.4,36.07
-0.072,0.145,10.894,19.585,69.0,12.4,36.42
-0.08,0.145,10.892,19.58,69.0,12.4,36.78
-0.088,0.207,10.887,19.575,69.0,12.4,37.08
0.091,0.228,10.884,19.573,69.0,12.4,37.37
-0.031,0.124,10.879,19.568,69.0,12.4,37.66
0.075,0.145,10.877,19.563,69.0,12.42,37.93
0.224,0.124,10.873,19.558,69.0,12.4,38.2
-0.006,0.166,10.869,19.555,69.0,12.4,38.49
-0.096,0.145,10.867,19.55,71.0,12.4,38.75
-0.091,0.124,10.863,19.548,71.0,12.4,38.98
-0.101,0.145,10.861,19.543,71.0,12.4,39.13
-0.109,0.166,10.857,19.538,71.0,12.4,39.18
-0.071,0.145,10.855,19.533,71.0,12.4,39.3
-0.13,0.166,10.85,19.529,71.0,12.4,39.43
0.153,0.269,10.847,19.525,71.0,12.4,39.58
-0.117,0.186,10.844,19.522,71.0,12.4,39.6
0.022,0.124,10.84,19.518,71.0,12.4,39.46
0.196,0.186,10.837,19.515,71.0,12.4,39.22
0.123,0.145,10.832,19.51,71.0,12.4,39.01
-0.071,0.186,10.83,19.506,80.0,12.4,38.85
-0.069,0.104,10.826,19.501,80.0,12.4,38.7
-0.066,0.124,10.824,19.496,80.0,12.4,38.52
-0.079,0.186,10.82,19.492,80.0,12.4,38.23
-0.086,0.104,10.817,19.488,80.0,12.4,37.96
-0.03,0.145,10.814,19.483,80.0,12.4,37.75
-0.084,0.124,10.811,19.48,80.0,12.4,37.57
0.231,0.373,10.807,19.476,80.0,12.4,37.38
-0.097,0.186,10.804,19.471,80.0,12.4,37.16
0.033,0.124,10.801,19.467,80.0,12.4,36.99
0.193,0.145,10.797,19.463,80.0,12.4,36.85
0.207,0.145,10.795,19.458,80.0,12.4,36.73
-0.036,0.124,10.791,19.455,80.0,12.4,36.63
-0.046,0.124,10.789,19.452,76.0,12.4,36.51
-0.044,0.145,10.786,19.45,76.0,12.4,36.39
-0.056,0.124,10.784,19.447,76.0,12.4,36.18
-0.07,0.145,10.78,19.445,76.0,12.4,35.94
-0.055,0.145,10.777,19.443,76.0,12.4,35.83
-0.022,0.207,10.774,19.441,76.0,12.4,35.76
-0.082,0.186,10.772,19.437,76.0,12.4,35.69
0.205,0.352,10.768,19.433,76.0,12.4,35.62
-0.023,0.124,10.765,19.428,76.0,12.4,35.54
0.076,0.166,10.763,19.423,76.0,12.4,35.48
0.257,0.124,10.759,19.419,76.0,12.4,35.41
0.142,0.124,10.757,19.412,76.0,12.4,35.34
-0.032,0.104,10.753,19.406,72.0,12.4,35.28
-0.029,0.145,10.75,19.401,72.0,12.4,35.2
-0.035,0.124,10.748,19.396,72.0,12.4,35.17
-0.048,0.124,10.745,19.394,72.0,12.4,35.03
-0.057,0.166,10.742,19.389,72.0,12.4,34.87
-0.02,0.145,10.739,19.384,72.0,12.4,34.83
-0.038,0.145,10.735,19.379,72.0,12.4,34.86
-0.026,0.228,10.733,19.374,72.0,12.4,34.88
0.15,0.331,10.73,19.369,72.0,12.39,34.87
0.021,0.124,10.727,19.366,72.0,12.39,34.92
0.131,0.145,10.724,19.361,72.0,12.39,35.05
0.272,0.124,10.722,19.356,72.0,12.39,35.23
0.029,0.124,10.718,19.353,72.0,12.39,35.42
-0.05,0.145,10.715,19.349,73.0,12.4,35.65
-0.045,0.124,10.712,19.344,73.0,12.39,35.9
-0.063,0.124,10.708,19.341,73.0,12.39,36.12
-0.079,0.145,10.705,19.336,73.0,12.39,36.23
-0.085,0.124,10.703,19.334,73.0,12.39,36.49
-0.039,0.166,10.7,19.331,73.0,12.39,36.8
-0.093,0.124,10.698,19.327,73.0,12.39,37.15
0.193,0.331,10.694,19.323,73.0,12.39,37.4
-0.137,0.186,10.692,19.319,73.0,12.39,37.62
0.011,0.124,10.688,19.317,73.0,12.39,37.86
0.167,0.124,10.686,19.313,73.0,12.39,38.1
0.173,0.145,10.683,19.309,73.0,12.39,38.35
-0.055,0.145,10.681,19.307,73.0,12.39,38.58
-0.072,0.145,10.678,19.304,73.0,12.39,38.77
-0.066,0.124,10.676,19.302,73.0,12.39,38.92
-0.082,0.145,10.673,19.299,73.0,12.38,38.95
-0.059,0.166,10.671,19.297,73.0,12.39,38.95
-0.067,0.166,10.668,19.296,73.0,12.39,38.96
-0.092,0.207,10.666,19.293,73.0,12.39,38.92
0.136,0.311,10.662,19.291,73.0,12.39,38.84
-0.009,0.145,10.66,19.287,73.0,12.38,38.69
0.098,0.145,10.657,19.28,73.0,12.39,38.52
0.253,0.145,10.655,19.273,73.0,12.38,38.34
0.023,0.104,10.652,19.265,73.0,12.38,38.19
-0.06,0.166,10.648,19.259,80.0,12.38,38.07
-0.053,0.145,10.646,19.252,80.0,12.39,37.95
-0.059,0.104,10.643,19.247,80.0,12.38,37.76
-0.075,0.124,10.641,19.242,80.0,12.38,37.46
-0.053,0.186,10.638,19.237,80.0,12.39,37.25
-0.043,0.124,10.635,19.232,80.0,12.38,37.08
-0.095,0.186,10.633,19.227,80.0,12.39,36.95
0.19,0.352,10.631,19.222,80.0,12.38,36.81
-0.002,0.124,10.628,19.215,80.0,12.38,36.68
0.093,0.104,10.625,19.21,80.0,12.39,36.57
0.068,0.186,10.622,19.205,80.0,12.38,36.47
0.007,0.207,10.62,19.204,77.0,12.38,36.37
-0.044,0.145,10.617,19.202,77.0,12.38,36.29
-0.034,0.186,10.613,19.2,77.0,12.38,36.2
-0.043,0.145,10.611,19.197,77.0,12.39,36.14
-0.058,0.145,10.606,19.194,77.0,12.38,35.79
-0.055,0.166,10.606,19.194,77.0,12.38,35.78
-0.005,0.166,10.605,19.192,77.0,12.38,35.71
-0.067,0.145,10.601,19.191,77.0,12.38,35.69
0.233,0.394,10.598,19.19,77.0,12.38,35.66
-0.062,0.186,10.596,19.189,77.0,12.38,35.6
0.058,0.124,10.594,19.186,77.0,12.38,35.56
0.226,0.124,10.591,19.184,77.0,12.38,35.51
0.201,0.124,10.589,19.182,77.0,12.38,35.48
-0.02,0.145,10.586,19.181,77.0,12.38,35.46
-0.027,0.145,10.584,19.18,74.0,12.38,35.42
-0.031,0.145,10.581,19.179,74.0,12.38,35.39
-0.048,0.104,10.579,19.176,74.0,12.38,35.3
-0.054,0.145,10.576,19.176,74.0,12.38,35.13
-0.017,0.124,10.574,19.176,74.0,12.38,35.08
-0.046,0.166,10.571,19.176,74.0,12.38,35.09
0.012,0.269,10.569,19.176,74.0,12.38,35.13
0.105,0.207,10.566,19.176,74.0,12.38,35.15
0.02,0.124,10.564,19.176,74.0,12.38,35.21
0.136,0.166,10.561,19.177,74.0,12.38,35.33
0.266,0.145,10.559,19.182,74.0,12.38,35.45
0.009,0.166,10.556,19.19,74.0,12.38,35.58
-0.049,0.186,10.554,19.197,75.0,12.38,35.74
-0.048,0.124,10.551,19.205,75.0,12.38,35.93
-0.062,0.124,10.55,19.21,75.0,12.38,36.11
-0.079,0.145,10.546,19.218,75.0,12.38,36.17
-0.086,0.186,10.544,19.225,75.0,12.38,36.39
-0.042,0.166,10.543,19.231,75.0,12.38,36.68
-0.083,0.207,10.54,19.237,75.0,12.38,37.01
0.15,0.29,10.538,19.242,75.0,12.38,37.26
-0.101,0.207,10.535,19.245,75.0,12.38,37.5
0.0,0.124,10.534,19.248,75.0,12.38,37.75
0.136,0.145,10.533,19.252,75.0,12.38,38.02
0.201,0.145,10.53,19.254,75.0,12.38,38.27
-0.049,0.186,10.53,19.258,75.0,12.38,38.53
-0.082,0.145,10.528,19.261,72.0,12.38,38.79
-0.077,0.145,10.528,19.263,72.0,12.38,38.99
-0.09,0.124,10.526,19.263,72.0,12.38,39.09
-0.05,0.124,10.525,19.263,72.0,12.38,39.16
-0.101,0.124,10.525,19.264,72.0,12.38,39.3
0.155,0.29,10.525,19.263,72.0,12.38,39.43
-0.136,0.228,10.525,19.261,72.0,12.38,39.46
0.018,0.166,10.524,19.258,72.0,12.38,39.33
0.179,0.104,10.523,19.254,72.0,12.38,39.11
0.215,0.124,10.523,19.252,72.0,12.38,38.88
-0.042,0.145,10.521,19.245,72.0,12.38,38.69
-0.064,0.145,10.52,19.24,84.0,12.37,38.53
-0.052,0.124,10.52,19.232,84.0,12.37,38.36
-0.068,0.145,10.52,19.225,84.0,12.37,38.1
-0.053,0.186,10.518,19.217,84.0,12.37,37.8
-0.041,0.124,10.518,19.21,84.0,12.37,37.59
-0.1,0.186,10.515,19.201,84.0,12.37,37.41
0.197,0.269,10.515,19.195,84.0,12.37,37.26
-0.005,0.124,10.515,19.187,84.0,12.37,37.09
0.09,0.104,10.513,19.181,84.0,12.37,36.95
0.266,0.207,10.51,19.176,84.0,12.37,36.82
0.062,0.145,10.51,19.17,84.0,12.37,36.69
-0.048,0.145,10.509,19.165,80.0,12.37,36.6
-0.042,0.145,10.508,19.157,80.0,12.37,36.47
-0.051,0.124,10.506,19.153,80.0,12.37,36.35
-0.064,0.145,10.504,19.148,80.0,12.37,36.08
-0.029,0.145,10.502,19.143,80.0,12.37,35.89
-0.055,0.145,10.501,19.138,80.0,12.36,35.79
-0.018,0.228,10.499,19.133,80.0,12.37,35.73
0.117,0.249,10.497,19.129,80.0,12.37,35.65
0.007,0.145,10.496,19.125,80.0,12.37,35.52
0.121,0.145,10.493,19.122,80.0,12.37,35.41
0.258,0.145,10.492,19.119,80.0,12.37,35.32
0.0,0.145,10.489,19.117,80.0,12.37,35.25
-0.062,0.124,10.488,19.113,79.0,12.37,35.2
-0.056,0.104,10.484,19.109,79.0,12.37,35.13
-0.069,0.124,10.483,19.103,79.0,12.37,35.07
-0.082,0.145,10.481,19.095,79.0,12.37,34.91
-0.087,0.124,10.478,19.09,79.0,12.37,34.82
-0.057,0.166,10.476,19.087,79.0,12.37,34.81
-0.07,0.166,10.473,19.081,79.0,12.37,34.85
-0.058,0.186,10.471,19.077,79.0,12.37,34.83
0.119,0.29,10.468,19.073,79.0,12.37,34.85
-0.013,0.104,10.466,19.069,79.0,12.37,34.91
0.095,0.166,10.463,19.066,79.0,12.37,35.03
0.238,0.166,10.462,19.063,79.0,12.37,35.16
-0.002,0.145,10.458,19.06,79.0,12.37,35.33
-0.082,0.124,10.456,19.056,71.0,12.37,35.54
-0.079,0.124,10.453,19.052,71.0,12.37,35.77
-0.094,0.124,10.451,19.048,71.0,12.37,35.99
-0.114,0.104,10.448,19.045,71.0,12.37,36.1
-0.121,0.186,10.446,19.041,71.0,12.37,36.37
-0.097,0.145,10.443,19.036,71.0,12.37,36.68
-0.1,0.145,10.441,19.031,71.0,12.37,37.03
-0.109,0.186,10.438,19.026,71.0,12.37,37.3
0.074,0.249,10.436,19.021,71.0,12.37,37.55
-0.052,0.145,10.433,19.016,71.0,12.37,37.81
0.054,0.145,10.431,19.011,71.0,12.37,38.05
0.208,0.145,10.428,19.006,71.0,12.37,38.31
-0.024,0.124,10.426,19.001,71.0,12.37,38.57
-0.112,0.124,10.423,18.997,70.0,12.37,38.81
-0.099,0.145,10.421,18.993,70.0,12.37,39.01
-0.102,0.124,10.419,18.991,70.0,12.37,39.13
-0.118,0.145,10.416,18.988,70.0,12.37,39.12
-0.077,0.145,10.414,18.985,70.0,12.37,39.16
-0.103,0.145,10.411,18.981,70.0,12.37,39.15
-0.031,0.228,10.409,18.976,70.0,12.37,39.01
0.053,0.29,10.407,18.974,70.0,12.37,38.79
-0.013,0.124,10.404,18.969,70.0,12.36,38.54
0.112,0.186,10.401,18.965,70.0,12.36,38.31
0.234,0.124,10.399,18.963,70.0,12.36,38.07
-0.024,0.124,10.397,18.959,70.0,12.36,37.87
-0.076,0.124,10.395,18.956,78.0,12.36,37.7
-0.065,0.124,10.394,18.951,78.0,12.36,37.51
-0.073,0.124,10.39,18.949,78.0,12.36,37.27
-0.089,0.124,10.389,18.945,78.0,12.37,36.94
-0.088,0.145,10.386,18.941,78.0,12.36,36.72
-0.033,0.124,10.382,18.939,78.0,12.36,36.57
-0.094,0.166,10.38,18.935,78.0,12.37,36.46
0.219,0.29,10.377,18.931,78.0,12.36,36.34
-0.096,0.166,10.376,18.929,78.0,12.36,36.26
0.024,0.124,10.374,18.926,78.0,12.37,36.17
0.192,0.104,10.371,18.921,78.0,12.36,36.09
0.176,0.145,10.369,18.919,78.0,12.36,36.05
-0.056,0.124,10.366,18.916,73.0,12.36,36.02
-0.064,0.104,10.364,18.913,73.0,12.36,35.95
-0.064,0.145,10.362,18.91,73.0,12.36,35.89
-0.081,0.124,10.36,18.908,73.0,12.36,35.72
-0.091,0.124,10.357,18.904,73.0,12.36,35.53
-0.085,0.124,10.356,18.9,73.0,12.36,35.45
-0.039,0.124,10.354,18.898,73.0,12.36,35.43
-0.102,0.145,10.352,18.894,73.0,12.36,35.44
0.181,0.331,10.35,18.892,73.0,12.36,35.37
-0.06,0.145,10.347,18.888,73.0,12.36,35.31
0.039,0.124,10.345,18.884,73.0,12.36,35.27
0.22,0.145,10.342,18.881,73.0,12.36,35.26
0.136,0.124,10.341,18.877,73.0,12.36,35.22
-0.063,0.145,10.339,18.874,72.0,12.36,35.2
-0.064,0.124,10.336,18.871,72.0,12.36,35.15
-0.068,0.186,10.334,18.867,72.0,12.36,35.12
-0.083,0.145,10.333,18.864,72.0,12.36,35.0
-0.097,0.145,10.33,18.862,72.0,12.36,34.85
-0.069,0.124,10.329,18.857,72.0,12.36,34.91
-0.076,0.145,10.327,18.854,72.0,12.36,35.09
-0.092,0.166,10.324,18.852,72.0,12.36,35.33
0.128,0.29,10.323,18.848,72.0,12.36,35.55
0.054,0.124,10.32,18.844,72.0,12.36,35.82
0.11,0.145,10.318,18.842,72.0,12.36,36.11
0.222,0.145,10.317,18.839,72.0,12.36,36.4
-0.01,0.124,10.314,18.837,72.0,12.36,36.69
-0.107,0.166,10.312,18.836,73.0,12.36,37.0
-0.106,0.145,10.309,18.829,73.0,12.36,37.49
-0.113,0.166,10.308,18.829,73.0,12.36,37.51
-0.132,0.166,10.305,18.828,73.0,12.36,37.65
-0.109,0.145,10.304,18.824,73.0,12.36,37.89
-0.114,0.166,10.302,18.822,73.0,12.36,38.18
-0.133,0.207,10.299,18.819,73.0,12.36,38.48
0.074,0.29,10.297,18.817,73.0,12.36,38.7
-0.061,0.124,10.295,18.814,73.0,12.36,38.88
0.049,0.186,10.293,18.811,73.0,12.36,39.02
0.213,0.124,10.292,18.807,73.0,12.36,39.12
-0.012,0.186,10.289,18.806,73.0,12.36,39.2
-0.097,0.124,10.287,18.803,77.0,12.36,39.17
-0.084,0.124,10.285,18.8,77.0,12.36,39.04
-0.088,0.124,10.283,18.797,77.0,12.36,38.83
-0.1,0.145,10.282,18.795,77.0,12.36,38.53
-0.058,0.166,10.279,18.791,77.0,12.36,38.32
-0.086,0.186,10.278,18.789,77.0,12.36,38.16
0.013,0.228,10.277,18.785,77.0,12.36,38.01
0.052,0.228,10.274,18.782,77.0,12.36,37.85
-0.003,0.124,10.272,18.78,77.0,12.36,37.66
0.126,0.124,10.27,18.776,77.0,12.36,37.47
0.246,0.145,10.269,18.775,77.0,12.36,37.26
-0.008,0.124,10.267,18.771,77.0,12.36,37.09
-0.057,0.104,10.264,18.767,79.0,12.36,36.94
-0.051,0.124,10.262,18.765,79.0,12.36,36.8
-0.063,0.145,10.26,18.762,79.0,12.36,36.62
-0.072,0.145,10.258,18.759,79.0,12.36,36.31
-0.059,0.166,10.255,18.755,79.0,12.36,36.11
-0.032,0.145,10.254,18.752,79.0,12.36,35.97
-0.094,0.166,10.252,18.75,79.0,12.36,35.91
0.199,0.331,10.25,18.747,79.0,12.36,35.84
-0.014,0.145,10.249,18.744,79.0,12.36,35.81
0.076,0.124,10.247,18.741,79.0,12.36,35.83
0.263,0.166,10.244,18.737,79.0,12.36,35.8
0.101,0.145,10.243,18.735,79.0,12.36,35.74
-0.042,0.124,10.241,18.732,75.0,12.36,35.7
-0.037,0.145,10.24,18.729,75.0,12.36,35.63
-0.044,0.145,10.237,18.727,75.0,12.36,35.57
-0.059,0.124,10.235,18.724,75.0,12.36,35.39
-0.05,0.083,10.233,18.721,75.0,12.36,35.24
-0.01,0.145,10.232,18.717,75.0,12.36,35.2
-0.079,0.166,10.23,18.715,75.0,12.36,35.22
0.194,0.29,10.227,18.712,75.0,12.36,35.24
-0.044,0.166,10.225,18.709,75.0,12.36,35.21
0.05,0.186,10.223,18.705,75.0,12.34,35.19
0.222,0.207,10.222,18.703,75.0,12.36,35.19
0.128,0.394,10.22,18.7,75.0,12.34,35.23
-0.075,0.269,10.22,18.697,76.0,12.34,35.21
-0.087,0.331,10.216,18.694,76.0,12.34,35.24
-0.102,0.228,10.209,18.694,76.0,12.34,35.45
-0.124,0.186,10.199,18.692,76.0,12.34,35.66
-0.129,0.477,10.188,18.692,76.0,12.34,35.94
-0.117,0.435,10.176,18.689,76.0,12.34,36.48
-0.188,1.077,10.163,18.688,76.0,12.34,37.15
0.051,0.228,10.15,18.685,76.0,12.34,37.83
-0.121,0.145,10.139,18.683,76.0,12.34,38.3
-0.021,0.145,10.133,18.682,76.0,12.34,38.66
0.155,0.104,10.135,18.68,78.0,12.34,38.98
-0.047,0.124,10.133,18.678,78.0,12.34,39.44
-0.164,0.124,10.132,18.675,78.0,12.34,39.87
-0.145,0.145,10.129,18.674,78.0,12.34,40.25
-0.125,0.166,10.14,18.672,78.0,12.34,40.61
-0.092,0.186,10.15,18.67,78.0,12.34,40.73
-0.159,0.124,10.156,18.669,78.0,12.34,40.86
0.113,0.311,10.163,18.668,78.0,12.34,41.04
-0.153,0.166,10.167,18.667,78.0,12.34,41.22
0.0,0.124,10.167,18.664,78.0,12.34,41.19
0.194,0.124,10.167,18.663,78.0,12.34,40.81
0.112,0.166,10.167,18.66,78.0,12.34,40.35
-0.096,0.228,10.167,18.658,90.0,12.34,39.97
-0.092,0.104,10.165,18.665,90.0,12.33,39.63
-0.087,0.145,10.165,18.67,90.0,12.34,39.3
-0.097,0.186,10.162,18.673,90.0,12.33,38.85
-0.048,0.166,10.161,18.675,90.0,12.33,38.41
-0.103,0.104,10.16,18.68,90.0,12.33,38.13
0.216,0.311,10.16,18.685,90.0,12.33,38.03
-0.095,0.166,10.158,18.689,90.0,12.34,38.03
0.028,0.145,10.157,18.7,90.0,12.33,37.81
0.198,0.104,10.157,18.71,90.0,12.33,37.58
0.17,0.124,10.156,18.727,90.0,12.33,37.35
-0.049,0.145,10.154,18.739,90.0,12.34,37.04
-0.048,0.124,10.153,18.753,83.0,12.34,36.8
-0.049,0.124,10.15,18.766,83.0,12.33,36.7
-0.065,0.145,10.15,18.768,83.0,12.33,36.49
-0.02,0.166,10.149,18.781,83.0,12.34,36.23
-0.077,0.124,10.148,18.791,83.0,12.33,36.14
0.199,0.331,10.148,18.798,83.0,12.33,36.12
-0.07,0.186,10.148,18.808,83.0,12.33,36.14
0.022,0.124,10.148,18.815,83.0,12.34,36.11
0.171,0.124,10.148,18.828,83.0,12.33,36.06
0.221,0.104,10.149,18.839,83.0,12.33,36.02
-0.029,0.145,10.151,18.853,83.0,12.33,35.99
-0.043,0.104,10.153,18.869,83.0,12.33,35.94
-0.037,0.124,10.155,18.895,83.0,12.33,35.89
-0.058,0.124,10.158,18.929,83.0,12.33,35.8
-0.061,0.186,10.161,18.974,83.0,12.33,35.6
-0.013,0.124,10.166,18.985,83.0,12.33,35.51
-0.081,0.145,10.168,18.961,83.0,12.33,35.54
0.22,0.331,10.173,18.959,83.0,12.33,35.7
-0.075,0.166,10.177,18.96,83.0,12.33,35.83
0.029,0.104,10.181,18.964,83.0,12.33,35.99
0.192,0.104,10.186,18.965,83.0,12.33,36.22
0.152,0.145,10.191,18.961,83.0,12.33,36.49
-0.067,0.145,10.193,18.955,79.0,12.33,36.84
-0.077,0.124,10.198,18.945,79.0,12.33,37.22
-0.078,0.166,10.203,18.94,79.0,12.33,37.57
-0.098,0.124,10.206,18.939,79.0,12.33,37.79
-0.111,0.124,10.211,18.932,79.0,12.33,38.04
-0.062,0.166,10.213,18.924,79.0,12.33,38.36
-0.122,0.124,10.216,18.915,79.0,12.33,38.68
0.18,0.311,10.218,18.905,79.0,12.33,38.93
-0.142,0.145,10.221,18.893,79.0,12.33,39.12
0.007,0.104,10.225,18.879,79.0,12.33,39.19
0.176,0.104,10.227,18.867,79.0,12.33,39.19
0.172,0.145,10.227,18.852,79.0,12.33,39.2
-0.053,0.124,10.23,18.837,79.0,12.33,39.19
-0.059,0.124,10.23,18.823,76.0,12.33,39.14
-0.055,0.104,10.23,18.813,76.0,12.33,39.02
-0.07,0.124,10.23,18.803,76.0,12.33,38.69
-0.077,0.104,10.232,18.791,76.0,12.33,38.31
-0.071,0.124,10.232,18.778,76.0,12.33,38.0
-0.022,0.166,10.233,18.768,76.0,12.33,37.79
-0.079,0.124,10.232,18.758,76.0,12.33,37.71
0.237,0.311,10.232,18.746,76.0,12.33,37.56
-0.066,0.145,10.232,18.732,76.0,12.33,37.36
0.048,0.104,10.23,18.72,76.0,12.33,37.17
0.216,0.166,10.23,18.712,76.0,12.33,37.01
0.183,0.145,10.227,18.701,76.0,12.33,36.88
-0.037,0.124,10.225,18.691,76.0,12.32,36.76
-0.039,0.124,10.223,18.685,72.0,12.32,36.64
-0.039,0.124,10.221,18.676,72.0,12.33,36.57
-0.062,0.104,10.22,18.668,72.0,12.32,36.35
-0.066,0.104,10.217,18.659,72.0,12.32,36.13
-0.066,0.145,10.215,18.651,72.0,12.33,36.05
-0.018,0.145,10.212,18.645,72.0,12.32,36.06
-0.058,0.124,10.21,18.639,72.0,12.32,36.1
0.181,0.29,10.205,18.624,72.0,12.32,36.09
-0.007,0.207,10.205,18.623,72.0,12.32,36.09
0.035,0.104,10.202,18.616,72.0,12.32,36.05
0.174,0.145,10.198,18.609,72.0,12.32,36.03
0.259,0.083,10.196,18.603,72.0,12.32,35.99
-0.001,0.186,10.193,18.601,72.0,12.32,35.96
-0.036,0.145,10.191,18.598,70.0,12.32,35.92
-0.034,0.145,10.188,18.593,70.0,12.32,35.92
-0.049,0.083,10.185,18.591,70.0,12.32,35.85
-0.064,0.124,10.183,18.586,70.0,12.32,35.68
-0.067,0.186,10.178,18.581,70.0,12.32,35.66
-0.049,0.104,10.177,18.576,70.0,12.32,35.74
-0.03,0.186,10.175,18.571,70.0,12.32,35.91
-0.091,0.207,10.172,18.566,70.0,12.32,36.01
0.212,0.331,10.17,18.558,70.0,12.32,36.18
-0.004,0.145,10.167,18.553,70.0,12.32,36.41
0.08,0.083,10.163,18.548,70.0,12.32,36.65
0.252,0.124,10.162,18.543,70.0,12.32,36.88
0.061,0.124,10.16,18.536,70.0,12.32,37.14
-0.073,0.104,10.156,18.534,68.0,12.32,37.4
-0.071,0.145,10.154,18.529,68.0,12.32,37.66
-0.081,0.124,10.151,18.524,68.0,12.32,37.87
-0.099,0.145,10.149,18.519,68.0,12.32,37.97
-0.103,0.124,10.146,18.514,68.0,12.32,38.16
-0.052,0.166,10.144,18.509,68.0,12.32,38.4
-0.108,0.124,10.141,18.505,68.0,12.32,38.65
0.198,0.269,10.139,18.501,68.0,12.32,38.81
-0.128,0.166,10.136,18.496,68.0,12.32,38.92
0.021,0.124,10.133,18.494,68.0,12.32,38.96
0.18,0.124,10.13,18.49,68.0,12.32,38.95
0.194,0.104,10.128,18.488,68.0,12.32,38.92
-0.042,0.124,10.125,18.485,68.0,12.32,38.86
-0.056,0.124,10.123,18.485,75.0,12.32,38.73
-0.046,0.124,10.12,18.485,75.0,12.32,38.59
-0.059,0.124,10.118,18.486,75.0,12.32,38.33
-0.066,0.124,10.115,18.49,75.0,12.32,38.03
-0.015,0.166,10.114,18.494,75.0,12.32,37.79
-0.057,0.124,10.111,18.501,75.0,12.32,37.6
0.209,0.228,10.11,18.507,75.0,12.32,37.45
-0.038,0.145,10.108,18.514,75.0,12.32,37.27
0.041,0.124,10.105,18.519,75.0,12.32,37.06
0.188,0.166,10.104,18.525,75.0,12.32,36.87
0.259,0.104,10.101,18.531,75.0,12.32,36.7
0.001,0.145,10.099,18.536,75.0,12.32,36.58
-0.026,0.124,10.098,18.542,76.0,12.32,36.43
-0.021,0.124,10.096,18.548,76.0,12.32,36.3
-0.034,0.104,10.095,18.557,76.0,12.32,36.12
-0.027,0.166,10.095,18.569,76.0,12.32,35.89
-0.005,0.207,10.094,18.583,76.0,12.32,35.79
-0.072,0.145,10.093,18.6,76.0,12.32,35.75
0.23,0.311,10.093,18.622,76.0,12.31,35.74
0.016,0.124,10.093,18.646,76.0,12.32,35.74
0.104,0.104,10.093,18.676,76.0,12.32,35.71
0.288,0.166,10.093,18.709,76.0,12.32,35.6
0.124,0.124,10.093,18.74,76.0,12.32,35.55
-0.021,0.124,10.093,18.775,80.0,12.32,35.57
-0.017,0.124,10.094,18.807,80.0,12.32,35.51
-0.024,0.124,10.095,18.838,80.0,12.32,35.53
-0.044,0.145,10.098,18.865,80.0,12.32,35.41
-0.008,0.124,10.1,18.89,80.0,12.32,35.26
-0.046,0.104,10.104,18.906,80.0,12.32,35.29
0.067,0.29,10.111,18.926,80.0,12.32,35.44
0.056,0.228,10.117,18.951,80.0,12.32,35.65
0.008,0.166,10.126,18.969,80.0,12.31,35.87
0.129,0.124,10.135,18.981,80.0,12.32,36.1
0.237,0.124,10.145,18.988,80.0,12.31,36.42
-0.021,0.124,10.155,18.99,80.0,12.31,36.77
-0.076,0.104,10.167,18.988,80.0,12.32,37.0
-0.071,0.104,10.179,18.982,80.0,12.31,37.3
-0.089,0.124,10.192,18.975,80.0,12.31,37.51
-0.055,0.124,10.206,18.969,80.0,12.32,37.7
-0.117,0.104,10.218,18.96,80.0,12.32,37.98
0.142,0.269,10.233,18.945,80.0,12.31,38.27
-0.173,0.186,10.246,18.929,80.0,12.32,38.58
-0.017,0.104,10.259,18.914,80.0,12.32,38.79
0.141,0.124,10.271,18.899,80.0,12.31,38.97
0.121,0.166,10.284,18.887,85.0,12.32,39.13
-0.065,0.104,10.296,18.875,85.0,12.31,39.3
-0.08,0.124,10.308,18.864,85.0,12.32,39.43
-0.07,0.124,10.321,18.853,85.0,12.31,39.48
-0.078,0.145,10.338,18.833,85.0,12.31,39.1
-0.038,0.166,10.34,18.832,85.0,12.32,39.06
-0.1,0.124,10.347,18.816,85.0,12.31,38.85
0.197,0.29,10.353,18.796,85.0,12.31,38.69
-0.08,0.145,10.36,18.782,85.0,12.32,38.51
0.038,0.145,10.371,18.771,85.0,12.31,38.24
0.211,0.124,10.383,18.76,85.0,12.32,38.0
0.147,0.124,10.389,18.748,85.0,12.32,37.76
-0.053,0.124,10.39,18.736,86.0,12.31,37.56
-0.05,0.145,10.389,18.725,86.0,12.32,37.34
-0.053,0.145,10.387,18.71,86.0,12.32,37.15
-0.07,0.083,10.386,18.695,86.0,12.31,36.8
-0.029,0.166,10.386,18.68,86.0,12.31,36.56
-0.076,0.124,10.386,18.666,86.0,12.31,36.43
0.086,0.373,10.386,18.653,86.0,12.31,36.37
0.031,0.207,10.385,18.638,86.0,12.31,36.28
0.011,0.145,10.384,18.624,86.0,12.31,36.16
0.137,0.124,10.382,18.611,86.0,12.31,36.09
0.242,0.145,10.38,18.599,86.0,12.31,36.0
-0.017,0.145,10.377,18.591,86.0,12.31,35.91
-0.049,0.104,10.375,18.586,81.0,12.31,35.84
-0.047,0.166,10.372,18.579,81.0,12.31,35.8
-0.065,0.166,10.37,18.573,81.0,12.31,35.7
-0.042,0.207,10.367,18.568,81.0,12.31,35.48
-0.028,0.166,10.365,18.562,81.0,12.31,35.41
-0.055,0.145,10.36,18.554,81.0,12.31,35.41
-0.055,0.207,10.357,18.552,81.0,12.31,35.44
0.153,0.311,10.352,18.548,81.0,12.31,35.4
0.001,0.166,10.344,18.535,81.0,12.31,35.39
0.104,0.145,10.344,18.535,81.0,12.31,35.39
0.264,0.124,10.337,18.529,81.0,12.31,35.41
0.027,0.166,10.333,18.524,81.0,12.31,35.4
-0.045,0.124,10.33,18.519,76.0,12.31,35.39
-0.043,0.145,10.325,18.514,76.0,12.31,35.37
-0.052,0.124,10.32,18.509,76.0,12.31,35.35
-0.068,0.166,10.315,18.503,76.0,12.31,35.22
-0.075,0.145,10.31,18.498,76.0,12.31,35.18
-0.056,0.166,10.305,18.494,76.0,12.31,35.28
