ECG,EMG,foot GSR,hand GSR,HR,marker,RESP
-0.059,0.25375,7.874,12.164,89.0,9.02,45.18
-0.132,0.16575,7.853,12.141,89.0,9.02,45.17
-0.167,0.264125,7.831,12.121,89.0,9.02,45.19
0.91,0.3315,7.811,12.101,89.0,9.02,45.2
-0.091,0.26675,7.791,12.082,89.0,9.02,45.2
-0.12,0.119125,7.772,12.063,85.0,9.02,45.2
-0.049,0.013,7.755,12.047,85.0,9.02,45.19
0.12,0.357375,7.739,12.03,85.0,9.02,45.26
0.046,0.36,7.722,12.013,85.0,9.02,45.35
-0.105,0.398875,7.707,11.996,85.0,9.02,45.51
-0.12,0.158,7.692,11.981,85.0,9.02,45.61
-0.119,0.158,7.678,11.966,85.0,9.02,45.64
-0.115,0.3885,7.665,11.951,85.0,9.02,45.81
-0.111,0.321125,7.651,11.937,85.0,9.02,45.9
-0.111,0.256375,7.639,11.924,85.0,9.02,45.86
-0.089,0.0285,7.626,11.911,85.0,9.02,45.8
-0.033,0.02325,7.614,11.9,80.0,9.02,45.8
-0.111,0.22275,7.603,11.887,80.0,9.02,45.83
-0.151,0.227875,7.592,11.877,80.0,9.02,45.82
0.9,0.0285,7.583,11.866,80.0,9.02,45.76
-0.07,0.0285,7.574,11.855,80.0,9.02,45.75
-0.118,0.163125,7.564,11.844,80.0,9.02,45.75
-0.056,0.25125,7.554,11.833,80.0,9.02,45.73
0.108,0.15025,7.547,11.823,80.0,9.02,45.78
0.067,0.305625,7.539,11.815,80.0,9.02,45.94
-0.105,0.3185,7.529,11.805,80.0,9.02,46.11
-0.123,0.370375,7.522,11.795,80.0,9.02,46.3
-0.119,0.401375,7.514,11.785,80.0,9.02,46.49
-0.114,0.341875,7.509,11.775,80.0,9.02,46.73
-0.116,0.264125,7.501,11.768,80.0,9.02,47.03
-0.117,0.38075,7.496,11.758,80.0,9.02,47.25
-0.112,0.38075,7.489,11.75,80.0,9.02,47.4
-0.042,0.385875,7.482,11.742,80.0,9.02,47.54
-0.104,0.292625,7.476,11.735,80.0,9.02,47.62
-0.135,0.196875,7.471,11.726,80.0,9.02,47.65
0.704,0.018125,7.466,11.718,80.0,9.02,47.62
0.076,0.031125,7.461,11.711,80.0,9.02,47.5
-0.134,0.025875,7.456,11.703,80.0,9.02,47.32
-0.086,0.02325,7.451,11.696,80.0,9.02,47.11
0.055,0.02325,7.448,11.688,80.0,9.02,46.9
0.109,0.38075,7.444,11.682,81.0,9.02,46.74
-0.093,0.370375,7.439,11.675,81.0,9.02,46.62
-0.131,0.32375,7.434,11.668,81.0,9.02,46.5
-0.132,0.163125,7.431,11.662,81.0,9.02,46.37
-0.127,0.018125,7.426,11.655,81.0,9.02,46.25
-0.126,0.031125,7.423,11.648,81.0,9.02,46.12
-0.128,0.02325,7.419,11.641,81.0,9.02,46.01
-0.114,0.02075,7.415,11.635,81.0,9.02,45.95
-0.044,0.018125,7.413,11.628,81.0,9.02,45.93
-0.113,0.303,7.409,11.623,81.0,9.02,45.91
-0.141,0.36,7.407,11.618,81.0,9.02,45.87
0.84,0.29,7.403,11.615,81.0,9.02,45.86
-0.013,0.17875,7.399,11.61,75.0,9.02,45.87
-0.115,0.38075,7.397,11.608,75.0,9.02,45.87
-0.059,0.372875,7.394,11.605,75.0,9.02,45.88
0.095,0.36,7.391,11.603,75.0,9.02,45.88
0.113,0.328875,7.388,11.6,75.0,9.02,45.86
-0.08,0.31075,7.386,11.598,75.0,9.02,45.8
-0.106,0.16575,7.384,11.593,75.0,9.02,45.73
-0.106,0.3445,7.382,11.589,75.0,9.02,45.72
-0.102,0.347,7.381,11.587,75.0,9.02,45.76
-0.099,0.32375,7.378,11.587,75.0,9.02,45.78
-0.1,0.401375,7.376,11.588,75.0,9.02,45.79
-0.097,0.191625,7.376,11.593,75.0,9.02,45.81
-0.08,0.119125,7.374,11.605,74.0,9.02,45.82
-0.011,0.277125,7.373,11.612,74.0,9.02,45.85
-0.08,0.134625,7.373,11.636,74.0,9.02,45.87
-0.112,0.15025,7.373,11.666,74.0,9.02,45.88
0.878,0.28225,7.373,11.7,74.0,9.02,45.88
0.012,0.303,7.377,11.738,74.0,9.02,45.84
-0.092,0.372875,7.382,11.778,74.0,9.0,45.76
-0.035,0.35475,7.39,11.818,74.0,8.99,45.79
0.119,0.36,7.402,11.855,74.0,9.1,45.89
0.143,0.349625,7.417,11.867,74.0,8.96,45.82
-0.055,0.233125,7.435,11.857,74.0,8.88,45.69
-0.083,0.119125,7.459,11.842,74.0,9.14,45.63
-0.084,0.1425,7.485,11.837,74.0,9.46,45.6
-0.082,0.1295,7.515,11.83,75.0,9.39,45.73
-0.081,0.3445,7.546,11.82,75.0,9.41,45.98
-0.083,0.36775,7.579,11.813,75.0,9.47,46.18
-0.083,0.3445,7.611,11.811,75.0,9.51,46.41
-0.079,0.308125,7.645,11.802,75.0,9.54,46.58
-0.02,0.321125,7.68,11.784,75.0,9.54,46.76
-0.043,0.36775,7.712,11.753,75.0,9.52,47.0
-0.098,0.28225,7.743,11.716,75.0,9.52,47.15
0.364,0.277125,7.771,11.679,75.0,9.52,47.34
0.496,0.365125,7.797,11.64,75.0,9.52,47.57
-0.1,0.33925,7.819,11.602,75.0,9.52,47.59
-0.065,0.32375,7.839,11.561,81.0,9.52,47.42
0.052,0.378125,7.856,11.513,81.0,9.52,47.28
0.187,0.365125,7.869,11.476,81.0,9.52,46.99
-0.016,0.33925,7.88,11.422,81.0,9.52,46.61
-0.089,0.2875,7.886,11.384,81.0,9.52,46.32
-0.095,0.38325,7.891,11.353,81.0,9.52,46.19
-0.099,0.33925,7.895,11.311,81.0,9.5,45.96
-0.094,0.36775,7.895,11.271,81.0,9.5,45.69
-0.097,0.313375,7.895,11.237,81.0,9.5,45.82
-0.098,0.365125,7.891,11.211,81.0,9.5,45.86
-0.098,0.27975,7.886,11.173,81.0,9.51,45.62
-0.062,0.189,7.88,11.127,82.0,9.52,45.33
-0.032,0.0855,7.872,11.073,82.0,9.51,45.15
-0.117,0.170875,7.863,11.015,82.0,9.5,45.05
-0.042,0.300375,7.852,10.99,82.0,9.5,45.21
0.841,0.349625,7.839,10.964,82.0,9.5,45.25
-0.115,0.139875,7.827,10.925,82.0,9.5,45.16
-0.106,0.075125,7.811,10.908,82.0,9.49,45.19
-0.016,0.0725,7.797,10.882,82.0,9.49,45.39
0.162,0.090625,7.779,10.85,82.0,9.47,45.55
0.009,0.139875,7.765,10.801,82.0,9.47,45.52
-0.105,0.075125,7.75,10.763,82.0,9.47,45.47
-0.111,0.139875,7.732,10.734,83.0,9.47,45.38
-0.111,0.204625,7.717,10.719,83.0,9.47,45.34
-0.102,0.35475,7.702,10.699,83.0,9.47,45.35
-0.108,0.3315,7.687,10.698,83.0,9.46,45.35
-0.103,0.3885,7.673,10.703,83.0,9.45,45.24
-0.052,0.25375,7.658,10.704,83.0,9.45,45.14
-0.047,0.31075,7.644,10.697,83.0,9.45,45.21
-0.112,0.357375,7.63,10.673,83.0,9.45,45.48
0.167,0.28225,7.618,10.656,83.0,9.45,45.63
0.65,0.385875,7.606,10.65,83.0,9.45,45.52
-0.102,0.36,7.594,10.647,83.0,9.45,45.4
-0.065,0.300375,7.583,10.655,84.0,9.44,45.37
0.042,0.207125,7.574,10.659,84.0,9.44,45.35
0.192,0.316,7.562,10.665,84.0,9.43,45.36
0.008,0.246,7.552,10.663,84.0,9.43,45.48
-0.071,0.082875,7.544,10.662,84.0,9.43,45.7
-0.075,0.062125,7.536,10.66,84.0,9.43,45.9
-0.074,0.0725,7.527,10.66,84.0,9.43,45.91
-0.07,0.2875,7.519,10.656,84.0,9.43,45.92
-0.069,0.246,7.511,10.651,84.0,9.43,45.93
-0.058,0.334125,7.505,10.643,84.0,9.43,45.99
0.02,0.305625,7.499,10.636,84.0,9.43,46.14
-0.035,0.3445,7.491,10.616,85.0,9.43,46.25
-0.071,0.261625,7.485,10.6,85.0,9.43,46.36
0.844,0.5905,7.479,10.594,85.0,9.43,46.49
0.132,0.471375,7.474,10.58,85.0,9.43,46.54
-0.06,0.1865,7.469,10.543,85.0,9.41,46.63
-0.009,0.259,7.464,10.49,85.0,9.41,46.72
0.14,0.357375,7.459,10.445,85.0,9.43,46.78
0.204,0.33925,7.454,10.352,85.0,9.41,46.7
-0.002,0.248625,7.449,10.264,85.0,9.4,46.47
-0.041,0.308125,7.444,10.226,85.0,9.4,46.39
-0.045,0.36775,7.441,10.243,85.0,9.4,46.59
-0.043,0.328875,7.436,10.226,88.0,9.4,46.27
-0.041,0.334125,7.434,10.169,88.0,9.4,45.87
-0.036,0.3445,7.429,10.091,88.0,9.4,46.04
-0.007,0.277125,7.424,10.075,88.0,9.4,46.13
0.031,0.3185,7.423,10.038,88.0,9.38,46.11
-0.061,0.3185,7.418,9.979,88.0,9.38,45.96
-0.032,0.316,7.414,9.942,88.0,9.38,46.32
0.961,0.240875,7.412,10.029,88.0,9.41,46.71
-0.045,0.054375,7.409,10.129,88.0,9.41,47.38
-0.045,0.2305,7.402,10.149,88.0,9.41,48.63
0.036,0.132125,7.403,10.147,87.0,9.41,48.64
0.216,0.098375,7.399,10.115,87.0,9.41,48.57
0.073,0.098375,7.397,10.06,87.0,9.46,48.08
-0.056,0.09325,7.394,9.997,87.0,9.52,47.17
-0.075,0.328875,7.392,9.949,87.0,9.13,46.47
-0.072,0.313375,7.389,9.929,87.0,8.99,46.05
-0.08,0.126875,7.387,9.917,87.0,8.9,45.88
-0.071,0.126875,7.383,9.92,87.0,8.9,45.85
-0.061,0.132125,7.381,9.926,87.0,8.9,45.87
-0.014,0.3445,7.378,9.932,87.0,8.88,45.9
-0.087,0.35475,7.376,9.936,87.0,8.88,45.92
-0.121,0.31075,7.374,9.934,86.0,8.89,45.79
0.954,0.2875,7.372,9.932,86.0,8.86,45.83
-0.052,0.303,7.369,9.956,86.0,8.86,46.02
-0.089,0.32625,7.368,9.991,86.0,8.88,46.04
-0.026,0.36775,7.366,10.024,86.0,8.86,45.94
0.142,0.3755,7.363,10.046,86.0,8.86,45.9
0.087,0.264125,7.361,10.063,86.0,8.86,45.89
-0.081,0.02075,7.361,10.09,86.0,8.86,45.79
-0.098,0.126875,7.357,10.118,86.0,8.86,45.5
-0.092,0.03625,7.356,10.134,86.0,8.86,45.49
-0.094,0.2745,7.353,10.141,86.0,8.85,45.77
-0.088,0.313375,7.351,10.147,84.0,8.85,45.88
-0.089,0.341875,7.351,10.156,84.0,8.85,46.03
-0.021,0.038875,7.348,10.172,84.0,8.85,46.3
-0.085,0.069875,7.346,10.18,84.0,8.85,46.69
-0.123,0.095875,7.346,10.239,84.0,8.85,47.15
0.826,0.114,7.344,10.316,84.0,8.85,47.48
-0.003,0.2435,7.343,10.391,84.0,8.85,47.66
-0.112,0.362625,7.343,10.45,84.0,8.85,47.81
-0.064,0.362625,7.343,10.486,84.0,8.85,48.06
0.089,0.357375,7.343,10.483,84.0,8.85,48.14
0.116,0.409125,7.346,10.429,96.0,8.85,47.99
-0.074,0.448,7.346,10.367,96.0,8.85,47.58
-0.113,0.248625,7.351,10.249,96.0,8.85,47.24
-0.111,0.046625,7.351,10.243,96.0,8.85,47.23
-0.112,0.088,7.352,10.238,96.0,8.85,47.2
-0.104,0.126875,7.354,10.263,96.0,8.85,47.2
-0.094,0.385875,7.356,10.258,96.0,8.85,47.04
-0.048,0.35225,7.359,10.253,96.0,8.85,46.95
-0.114,0.365125,7.361,10.227,96.0,8.85,46.96
-0.059,0.246,7.363,10.2,96.0,8.85,46.72
0.898,0.046625,7.363,10.174,96.0,8.85,46.56
-0.096,0.069875,7.366,10.139,96.0,8.85,46.38
-0.106,0.054375,7.367,10.084,78.0,8.85,46.24
-0.003,0.038875,7.368,10.054,78.0,8.85,46.39
0.166,0.046625,7.368,10.073,78.0,8.85,46.37
0.012,0.046625,7.369,10.101,78.0,8.85,46.26
-0.083,0.033625,7.371,10.121,78.0,8.85,46.3
-0.103,0.031125,7.371,10.139,78.0,8.85,46.36
-0.094,0.02325,7.371,10.157,78.0,8.85,46.27
-0.081,0.031125,7.369,10.175,78.0,8.85,46.15
-0.02,0.357375,7.368,10.191,78.0,8.85,46.16
-0.03,0.160625,7.368,10.206,78.0,8.85,46.17
-0.06,0.31075,7.371,10.219,78.0,8.85,46.15
-0.112,0.305625,7.373,10.241,84.0,8.85,46.14
0.359,0.36,7.373,10.275,84.0,8.85,46.16
0.492,0.025875,7.369,10.325,84.0,8.85,46.2
-0.107,0.0155,7.367,10.387,84.0,8.85,46.21
-0.061,0.297875,7.362,10.464,84.0,8.85,46.18
0.04,0.357375,7.359,10.554,84.0,8.85,46.1
0.173,0.36,7.364,10.653,84.0,8.85,46.04
-0.036,0.341875,7.366,10.764,84.0,8.85,46.05
-0.096,0.35475,7.372,10.886,84.0,8.85,46.08
-0.1,0.227875,7.382,11.009,84.0,8.85,46.1
-0.092,0.292625,7.397,11.132,84.0,8.85,46.11
-0.115,0.271875,7.417,11.251,83.0,8.85,46.11
-0.1,0.36,7.442,11.359,83.0,8.85,46.11
-0.041,0.316,7.475,11.462,83.0,8.85,46.12
-0.077,0.025875,7.512,11.562,83.0,8.85,46.14
-0.118,0.277125,7.556,11.655,83.0,8.85,46.11
0.448,0.38325,7.604,11.743,83.0,8.85,46.03
0.368,0.393625,7.655,11.809,83.0,8.85,46.02
-0.123,0.19425,7.71,11.861,83.0,8.85,46.13
-0.082,0.046625,7.766,11.9,83.0,8.85,46.28
0.045,0.292625,7.822,11.931,83.0,8.85,46.49
0.162,0.3755,7.876,11.957,83.0,8.85,46.66
-0.062,0.39625,7.929,11.979,82.0,8.85,46.79
-0.106,0.261625,7.977,11.985,82.0,8.85,46.86
-0.109,0.196875,8.022,11.979,82.0,8.85,47.12
-0.109,0.02325,8.062,11.972,82.0,8.85,47.47
-0.106,0.163125,8.096,11.963,82.0,8.85,47.68
-0.104,0.025875,8.125,11.952,82.0,8.85,47.78
-0.078,0.163125,8.15,11.933,82.0,8.85,47.85
-0.033,0.196875,8.171,11.912,82.0,8.88,48.02
-0.112,0.033625,8.188,11.88,82.0,8.89,48.23
-0.132,0.1165,8.201,11.846,82.0,9.01,48.2
0.94,0.025875,8.211,11.808,82.0,9.14,47.94
-0.089,0.313375,8.217,11.769,87.0,9.05,47.6
-0.103,0.033625,8.221,11.731,87.0,9.12,47.32
-0.026,0.227875,8.221,11.691,87.0,9.3,47.0
0.148,0.18125,8.219,11.651,87.0,9.47,46.67
0.046,0.391,8.215,11.613,87.0,9.68,46.38
-0.097,0.391,8.21,11.578,87.0,9.68,46.26
-0.11,0.3755,8.201,11.543,87.0,9.61,46.15
-0.111,0.365125,8.191,11.51,87.0,9.65,46.1
-0.101,0.39625,8.177,11.477,87.0,9.76,46.22
-0.101,0.38075,8.162,11.445,87.0,9.68,46.24
-0.054,0.378125,8.147,11.415,87.0,9.79,46.14
-0.05,0.365125,8.129,11.388,85.0,9.91,46.09
0.658,0.3445,8.112,11.362,85.0,10.0,46.08
0.095,0.393625,8.092,11.339,85.0,9.9,46.08
0.688,0.35225,8.07,11.318,85.0,9.82,46.06
-0.116,0.35475,8.049,11.299,85.0,9.79,46.04
-0.089,0.398875,8.028,11.288,85.0,9.73,45.97
0.021,0.385875,8.007,11.284,85.0,9.74,45.93
0.173,0.3315,7.985,11.288,85.0,9.69,45.93
-0.014,0.29525,7.965,11.305,85.0,9.65,45.92
-0.095,0.2745,7.943,11.33,85.0,9.61,45.93
-0.098,0.292625,7.924,11.369,86.0,9.61,45.97
-0.087,0.404,7.906,11.421,86.0,9.71,46.07
-0.075,0.3185,7.891,11.482,86.0,9.77,46.18
-0.07,0.163125,7.877,11.554,86.0,9.86,46.2
-0.035,0.22275,7.87,11.635,86.0,9.86,46.2
-0.003,0.199375,7.868,11.723,86.0,9.72,46.16
-0.086,0.248625,7.869,11.816,86.0,9.63,46.1
-0.038,0.1165,7.877,11.913,86.0,9.52,46.06
0.939,0.196875,7.89,12.012,86.0,9.52,46.06
-0.075,0.248625,7.91,12.114,86.0,9.46,46.09
-0.069,0.163125,7.934,12.213,86.0,9.38,46.12
0.015,0.25125,7.964,12.306,84.0,9.28,46.19
0.193,0.3315,7.994,12.396,84.0,9.14,46.34
0.045,0.305625,8.028,12.48,84.0,9.17,46.53
-0.072,0.199375,8.063,12.56,84.0,9.22,46.75
-0.08,0.02325,8.1,12.631,84.0,9.24,46.98
-0.085,0.2745,8.139,12.694,84.0,9.24,47.15
-0.085,0.22275,8.179,12.75,84.0,9.33,47.31
-0.084,0.349625,8.218,12.801,84.0,9.36,47.49
-0.067,0.3315,8.257,12.848,84.0,9.41,47.7
-0.01,0.385875,8.295,12.888,84.0,9.23,47.85
-0.088,0.277125,8.33,12.915,84.0,9.08,47.99
-0.125,0.328875,8.359,12.939,88.0,9.06,48.07
0.928,0.385875,8.383,12.954,88.0,9.08,48.02
-0.044,0.2435,8.402,12.959,88.0,9.21,47.83
-0.099,0.1165,8.421,12.951,88.0,9.34,47.6
-0.039,0.271875,8.436,12.937,88.0,9.36,47.37
0.126,0.22525,8.447,12.917,88.0,9.4,47.1
0.099,0.1165,8.456,12.892,88.0,9.45,46.87
-0.086,0.246,8.461,12.859,88.0,9.5,46.72
-0.108,0.31075,8.462,12.823,88.0,9.5,46.62
-0.11,0.271875,8.461,12.788,88.0,9.45,46.56
-0.113,0.2875,8.456,12.745,88.0,9.41,46.49
-0.112,0.02075,8.449,12.702,84.0,9.4,46.43
-0.113,0.32625,8.442,12.657,84.0,9.39,46.38
-0.048,0.2745,8.432,12.61,84.0,9.39,46.37
-0.086,0.378125,8.422,12.563,84.0,9.41,46.34
-0.135,0.385875,8.412,12.516,84.0,9.43,46.32
0.41,0.25125,8.402,12.469,84.0,9.43,46.25
0.387,0.199375,8.39,12.421,84.0,9.4,46.19
-0.129,0.227875,8.376,12.372,84.0,9.32,46.18
-0.091,0.305625,8.36,12.326,84.0,9.32,46.2
0.031,0.404,8.341,12.28,84.0,9.34,46.21
0.145,0.046625,8.323,12.239,84.0,9.4,46.22
-0.065,0.215,8.303,12.198,84.0,9.41,46.25
-0.125,0.207125,8.282,12.16,84.0,9.43,46.29
-0.127,0.347,8.261,12.125,84.0,9.43,46.32
-0.131,0.196875,8.239,12.09,84.0,9.44,46.35
-0.128,0.240875,8.22,12.058,84.0,9.49,46.35
-0.132,0.328875,8.199,12.026,84.0,9.55,46.28
-0.116,0.300375,8.177,11.999,84.0,9.57,46.21
-0.057,0.22525,8.156,11.972,84.0,9.51,46.18
-0.13,0.321125,8.133,11.946,84.0,9.51,46.19
-0.171,0.2875,8.11,11.921,84.0,9.46,46.18
0.845,0.31075,8.088,11.898,84.0,9.43,46.16
-0.092,0.3755,8.064,11.873,86.0,9.39,46.12
-0.151,0.3185,8.041,11.85,86.0,9.36,46.16
-0.096,0.36775,8.016,11.828,86.0,9.38,46.27
0.068,0.0285,7.991,11.806,86.0,9.38,46.46
0.051,0.1165,7.966,11.784,86.0,9.36,46.65
-0.14,0.2435,7.943,11.762,86.0,9.35,46.82
-0.162,0.196875,7.919,11.741,86.0,9.35,47.05
-0.163,0.305625,7.898,11.721,86.0,9.35,47.27
-0.154,0.349625,7.879,11.702,86.0,9.35,47.46
-0.151,0.372875,7.86,11.684,86.0,9.35,47.62
-0.12,0.220125,7.845,11.664,88.0,9.35,47.78
-0.081,0.357375,7.835,11.644,88.0,9.35,47.93
-0.164,0.22525,7.825,11.627,88.0,9.35,48.05
-0.179,0.033625,7.812,11.609,88.0,9.35,48.05
0.861,0.22525,7.8,11.593,88.0,9.36,47.91
-0.136,0.199375,7.789,11.575,88.0,9.35,47.64
-0.14,0.308125,7.773,11.558,88.0,9.34,47.36
-0.057,0.269375,7.757,11.543,88.0,9.33,47.15
0.121,0.321125,7.742,11.528,88.0,9.34,47.02
0.008,0.347,7.727,11.516,88.0,9.35,46.91
-0.128,0.227875,7.711,11.504,88.0,9.35,46.8
-0.135,0.2745,7.695,11.496,88.0,9.35,46.68
-0.133,0.35475,7.68,11.488,88.0,9.34,46.6
-0.13,0.35475,7.666,11.486,88.0,9.35,46.54
-0.129,0.126875,7.658,11.485,88.0,9.35,46.49
-0.109,0.163125,7.654,11.487,88.0,9.35,46.41
-0.044,0.357375,7.653,11.492,88.0,9.35,46.3
-0.126,0.393625,7.65,11.499,88.0,9.35,46.24
-0.165,0.264125,7.647,11.512,88.0,9.36,46.22
0.905,0.3315,7.645,11.523,88.0,9.35,46.21
-0.075,0.284875,7.64,11.538,88.0,9.35,46.22
-0.122,0.1165,7.64,11.553,86.0,9.35,46.21
-0.059,0.3445,7.642,11.568,86.0,9.35,46.2
0.11,0.22275,7.644,11.583,86.0,9.35,46.22
0.083,0.248625,7.655,11.595,86.0,9.35,46.25
-0.101,0.29525,7.671,11.609,86.0,9.36,46.25
-0.117,0.3315,7.684,11.619,86.0,9.36,46.22
-0.118,0.199375,7.698,11.629,86.0,9.38,46.14
-0.117,0.35475,7.714,11.636,86.0,9.38,46.11
-0.116,0.16575,7.732,11.643,86.0,9.38,46.12
-0.095,0.1165,7.754,11.648,86.0,9.38,46.13
-0.04,0.1165,7.771,11.65,86.0,9.38,46.16
-0.123,0.45325,7.788,11.65,84.0,9.38,46.16
-0.162,0.292625,7.807,11.648,84.0,9.38,46.18
0.897,0.398875,7.824,11.643,84.0,9.35,46.21
-0.082,0.3445,7.842,11.635,84.0,9.36,46.21
-0.13,0.2175,7.857,11.626,84.0,9.56,46.22
-0.069,0.3315,7.87,11.615,84.0,9.84,46.18
0.099,0.22275,7.882,11.603,84.0,9.94,46.13
0.067,0.1165,7.892,11.589,84.0,9.49,46.1
-0.113,0.1165,7.901,11.575,84.0,9.5,46.11
-0.132,0.372875,7.907,11.561,84.0,9.47,46.12
-0.132,0.2175,7.913,11.546,84.0,9.39,46.11
-0.135,0.25375,7.915,11.528,83.0,9.3,46.09
-0.136,0.25125,7.915,11.513,83.0,9.46,46.13
-0.131,0.32625,7.916,11.496,83.0,9.45,46.24
-0.062,0.26675,7.915,11.481,83.0,9.36,46.35
-0.132,0.259,7.911,11.466,83.0,9.36,46.5
-0.164,0.316,7.906,11.451,83.0,9.33,46.66
0.719,0.22525,7.9,11.436,83.0,9.3,46.79
0.012,0.328875,7.892,11.421,83.0,9.33,46.93
-0.153,0.114,7.884,11.41,83.0,9.34,47.13
-0.103,0.316,7.875,11.4,83.0,9.35,47.39
0.042,0.398875,7.863,11.394,83.0,9.34,47.65
0.095,0.36775,7.852,11.391,84.0,9.33,47.96
-0.111,0.347,7.84,11.392,84.0,9.33,48.42
-0.151,0.398875,7.829,11.397,84.0,9.33,48.98
-0.147,0.417,7.818,11.407,84.0,9.33,49.5
-0.144,0.31075,7.805,11.421,84.0,9.33,49.97
-0.145,0.160625,7.795,11.438,84.0,9.33,50.38
-0.124,0.220125,7.787,11.455,84.0,9.33,50.85
-0.076,0.277125,7.781,11.474,84.0,9.33,51.34
-0.156,0.1165,7.777,11.491,84.0,9.33,51.85
-0.194,0.025875,7.776,11.508,84.0,9.33,52.39
0.858,0.02075,7.776,11.522,84.0,9.33,52.91
-0.124,0.196875,7.779,11.534,90.0,9.33,53.28
-0.148,0.16575,7.784,11.547,90.0,9.33,53.56
-0.075,0.3755,7.793,11.556,90.0,9.33,53.77
0.097,0.12175,7.803,11.561,90.0,9.32,53.94
0.031,0.025875,7.813,11.565,90.0,9.33,53.89
-0.127,0.02075,7.827,11.565,90.0,9.32,53.62
-0.137,0.114,7.84,11.563,90.0,9.32,53.29
-0.132,0.163125,7.853,11.561,90.0,9.32,52.99
-0.127,0.321125,7.863,11.553,90.0,9.32,52.67
-0.126,0.1165,7.871,11.547,90.0,9.33,52.35
-0.12,0.163125,7.876,11.537,91.0,9.33,52.06
-0.04,0.349625,7.881,11.526,91.0,9.33,51.81
-0.099,0.025875,7.885,11.514,91.0,9.33,51.57
-0.136,0.196875,7.888,11.502,91.0,9.32,51.33
0.694,0.33925,7.891,11.492,91.0,9.32,51.07
0.122,0.35225,7.897,11.486,91.0,9.32,50.76
-0.123,0.357375,7.904,11.486,91.0,9.3,50.47
-0.075,0.297875,7.909,11.496,91.0,9.3,50.24
0.065,0.031125,7.91,11.514,91.0,9.3,50.0
0.139,0.305625,7.907,11.55,91.0,9.3,49.72
-0.068,0.038875,7.901,11.597,86.0,9.3,49.44
-0.109,0.305625,7.896,11.661,86.0,9.3,49.19
-0.106,0.35225,7.887,11.737,86.0,9.3,48.93
-0.106,0.248625,7.88,11.826,86.0,9.29,48.75
-0.106,0.29525,7.874,11.921,86.0,9.29,48.66
-0.104,0.3445,7.869,12.022,86.0,9.28,48.5
-0.036,0.308125,7.869,12.125,86.0,9.28,48.24
-0.07,0.3185,7.874,12.224,86.0,9.28,47.99
-0.125,0.248625,7.882,12.314,86.0,9.28,47.84
0.36,0.3885,7.898,12.394,86.0,9.28,47.7
0.451,0.35475,7.919,12.464,86.0,9.28,47.55
-0.121,0.227875,7.945,12.526,86.0,9.28,47.41
-0.088,0.398875,7.978,12.58,83.0,9.28,47.27
0.028,0.31075,8.017,12.622,83.0,9.28,47.17
0.153,0.158,8.057,12.655,83.0,9.28,47.11
-0.052,0.31075,8.1,12.682,83.0,9.28,47.0
-0.117,0.316,8.142,12.707,83.0,9.28,46.88
-0.121,0.1165,8.186,12.722,83.0,9.28,46.73
-0.12,0.308125,8.226,12.728,83.0,9.28,46.6
-0.121,0.313375,8.262,12.724,83.0,9.28,46.54
-0.12,0.189,8.295,12.714,83.0,9.28,46.51
-0.06,0.372875,8.324,12.694,83.0,9.28,46.49
-0.089,0.271875,8.349,12.669,83.0,9.28,46.44
-0.147,0.269375,8.37,12.639,80.0,9.28,46.39
0.24,0.269375,8.386,12.605,80.0,9.28,46.37
0.508,0.3445,8.399,12.57,80.0,9.28,46.36
-0.147,0.347,8.408,12.532,80.0,9.28,46.33
-0.115,0.163125,8.416,12.494,80.0,9.28,46.31
-0.001,0.046625,8.417,12.458,80.0,9.28,46.25
0.132,0.328875,8.417,12.421,80.0,9.28,46.17
-0.067,0.32375,8.416,12.386,80.0,9.28,46.13
-0.14,0.39625,8.411,12.351,80.0,9.28,46.14
-0.144,0.305625,8.404,12.32,80.0,9.28,46.15
-0.138,0.32375,8.394,12.291,80.0,9.28,46.15
-0.141,0.03625,8.384,12.264,80.0,9.28,46.14
-0.129,0.106125,8.371,12.239,80.0,9.28,46.16
-0.067,0.341875,8.356,12.216,80.0,9.28,46.25
-0.143,0.1165,8.339,12.193,80.0,9.28,46.3
-0.178,0.199375,8.32,12.172,80.0,9.28,46.31
0.817,0.22525,8.3,12.151,80.0,9.28,46.29
-0.096,0.264125,8.281,12.129,80.0,9.28,46.23
-0.156,0.22525,8.258,12.107,80.0,9.28,46.14
-0.098,0.264125,8.236,12.087,80.0,9.28,46.15
0.063,0.271875,8.215,12.064,80.0,9.28,46.18
0.057,0.248625,8.191,12.043,80.0,9.28,46.2
-0.125,0.328875,8.169,12.02,80.0,9.28,46.19
-0.144,0.3445,8.146,11.998,79.0,9.28,46.19
-0.139,0.259,8.124,11.976,79.0,9.28,46.21
-0.133,0.31075,8.102,11.953,79.0,9.28,46.22
-0.132,0.22275,8.08,11.931,79.0,9.28,46.22
-0.093,0.271875,8.058,11.908,79.0,9.28,46.24
-0.056,0.347,8.037,11.886,79.0,9.28,46.23
-0.136,0.158,8.017,11.865,79.0,9.28,46.15
-0.097,0.119125,7.997,11.843,79.0,9.28,46.1
0.884,0.347,7.977,11.823,79.0,9.28,46.11
-0.116,0.357375,7.96,11.802,79.0,9.28,46.13
-0.111,0.362625,7.941,11.782,79.0,9.28,46.15
-0.024,0.235625,7.924,11.762,79.0,9.28,46.15
0.143,0.139875,7.906,11.743,79.0,9.28,46.17
0.006,0.36775,7.89,11.724,79.0,9.28,46.19
-0.11,0.2745,7.86,11.69,79.0,9.28,46.2
-0.118,0.196875,7.858,11.688,79.0,9.28,46.21
-0.112,0.163125,7.843,11.671,79.0,9.28,46.22
-0.106,0.372875,7.829,11.655,79.0,9.28,46.18
-0.103,0.246,7.815,11.64,79.0,9.28,46.12
-0.06,0.196875,7.802,11.625,79.0,9.28,46.09
-0.033,0.02325,7.789,11.61,79.0,9.28,46.11
-0.111,0.31075,7.776,11.598,79.0,9.28,46.14
-0.02,0.401375,7.763,11.585,79.0,9.28,46.14
0.856,0.271875,7.751,11.573,79.0,9.28,46.07
-0.092,0.025875,7.738,11.561,79.0,9.28,45.99
-0.078,0.2745,7.728,11.548,79.0,9.28,46.02
0.012,0.0285,7.718,11.537,79.0,9.28,46.07
0.178,0.163125,7.708,11.526,79.0,9.28,45.92
0.022,0.2875,7.696,11.514,79.0,9.28,45.7
-0.082,0.36775,7.688,11.502,79.0,9.28,45.64
-0.089,0.38075,7.678,11.489,79.0,9.28,45.72
-0.087,0.372875,7.666,11.48,79.0,9.28,46.01
-0.084,0.39625,7.654,11.47,79.0,9.28,46.25
-0.08,0.261625,7.64,11.462,79.0,9.28,46.51
-0.054,0.32375,7.629,11.456,79.0,9.28,46.65
0.0,0.406625,7.619,11.451,81.0,9.28,46.89
-0.079,0.240875,7.609,11.445,81.0,9.28,47.08
-0.114,0.02075,7.599,11.44,81.0,9.28,47.15
0.957,0.321125,7.591,11.435,81.0,9.28,47.12
-0.04,0.22525,7.582,11.43,81.0,9.28,47.05
-0.068,0.0285,7.576,11.426,81.0,9.28,46.85
-0.001,0.303,7.571,11.421,81.0,9.28,46.79
0.166,0.292625,7.566,11.416,81.0,9.28,46.74
0.097,0.204625,7.563,11.414,81.0,9.28,46.73
-0.061,0.25125,7.562,11.41,81.0,9.27,46.55
-0.078,0.248625,7.56,11.408,81.0,9.28,46.47
-0.081,0.22525,7.556,11.406,86.0,9.27,46.55
-0.08,0.199375,7.552,11.403,86.0,9.27,46.79
-0.081,0.269375,7.552,11.4,86.0,9.27,46.93
-0.084,0.3885,7.551,11.401,86.0,9.25,46.98
-0.023,0.031125,7.546,11.4,86.0,9.25,47.0
-0.048,0.0285,7.541,11.399,86.0,9.27,46.81
-0.107,0.248625,7.537,11.395,86.0,9.25,46.72
0.314,0.160625,7.533,11.392,86.0,9.25,46.75
0.507,0.163125,7.528,11.389,86.0,9.25,46.71
-0.11,0.28225,7.523,11.386,86.0,9.25,46.4
-0.077,0.271875,7.52,11.382,86.0,9.25,46.24
0.035,0.29,7.518,11.379,86.0,9.27,46.3
0.164,0.025875,7.515,11.374,86.0,9.25,46.34
-0.039,0.025875,7.513,11.372,86.0,9.25,46.36
-0.108,0.248625,7.51,11.367,86.0,9.25,46.35
-0.111,0.284875,7.508,11.364,86.0,9.25,46.45
-0.109,0.27975,7.506,11.362,86.0,9.25,46.6
-0.103,0.36,7.504,11.359,86.0,9.25,46.72
-0.107,0.362625,7.499,11.357,86.0,9.25,47.04
-0.069,0.385875,7.496,11.356,86.0,9.25,47.27
-0.047,0.114,7.493,11.353,86.0,9.25,47.55
-0.126,0.119125,7.495,11.349,86.0,9.25,48.38
-0.048,0.22525,7.495,11.347,86.0,9.25,49.77
0.804,0.215,7.491,11.346,89.0,9.25,50.61
-0.122,0.26675,7.489,11.342,89.0,9.25,50.63
-0.114,0.271875,7.484,11.341,89.0,9.25,50.01
-0.023,0.025875,7.481,11.338,89.0,9.25,48.92
0.139,0.02325,7.481,11.336,89.0,9.25,48.35
-0.023,0.19425,7.48,11.333,89.0,9.25,48.15
-0.134,0.35475,7.474,11.331,89.0,9.25,47.89
-0.146,0.321125,7.475,11.331,89.0,9.25,47.87
-0.128,0.02325,7.473,11.329,91.0,9.25,47.87
-0.128,0.271875,7.471,11.327,91.0,9.25,48.26
-0.114,0.248625,7.469,11.326,91.0,9.25,49.31
-0.078,0.25125,7.468,11.323,91.0,9.25,50.28
-0.152,0.3885,7.466,11.319,91.0,9.25,50.49
-0.194,0.404,7.464,11.317,91.0,9.25,49.88
0.88,0.27975,7.463,11.314,91.0,9.25,48.9
-0.138,0.033625,7.463,11.304,91.0,9.25,48.12
-0.166,0.35475,7.463,11.306,91.0,9.25,48.07
-0.096,0.32625,7.463,11.302,91.0,9.25,47.61
0.067,0.292625,7.459,11.3,90.0,9.25,47.35
0.0,0.25125,7.458,11.296,90.0,9.25,47.3
-0.157,0.025875,7.455,11.294,90.0,9.25,47.4
-0.167,0.0155,7.454,11.29,90.0,9.25,47.44
-0.16,0.189,7.455,11.286,90.0,9.25,47.33
-0.146,0.160625,7.453,11.285,90.0,9.25,47.22
-0.127,0.38325,7.453,11.282,90.0,9.25,47.12
-0.075,0.3755,7.45,11.282,90.0,9.25,47.12
-0.154,0.36,7.45,11.284,90.0,9.25,47.17
-0.183,0.160625,7.449,11.288,90.0,9.25,47.21
0.896,0.25375,7.448,11.297,90.0,9.25,47.21
-0.117,0.308125,7.448,11.309,89.0,9.25,47.18
-0.155,0.19425,7.445,11.326,89.0,9.25,47.16
-0.094,0.313375,7.445,11.347,89.0,9.25,47.12
0.067,0.38325,7.446,11.372,89.0,9.25,47.08
0.039,0.370375,7.448,11.399,89.0,9.25,46.98
-0.127,0.271875,7.451,11.427,89.0,9.25,46.85
-0.144,0.119125,7.455,11.455,89.0,9.25,46.78
-0.14,0.19425,7.462,11.481,89.0,9.25,46.75
-0.131,0.372875,7.472,11.505,89.0,9.27,46.75
-0.132,0.264125,7.486,11.527,89.0,9.27,46.74
-0.108,0.235625,7.504,11.543,90.0,9.25,46.71
-0.059,0.292625,7.522,11.561,90.0,9.25,46.71
-0.135,0.347,7.543,11.571,90.0,9.24,46.7
-0.172,0.36775,7.567,11.583,90.0,9.24,46.69
0.943,0.031125,7.592,11.589,90.0,9.24,46.67
-0.099,0.357375,7.618,11.594,90.0,9.25,46.61
-0.128,0.36,7.645,11.597,90.0,9.25,46.54
-0.059,0.046625,7.671,11.597,90.0,9.25,46.52
0.11,0.26675,7.698,11.597,90.0,9.25,46.54
0.061,0.22275,7.723,11.593,90.0,9.24,46.55
-0.104,0.018125,7.766,11.581,90.0,9.25,46.54
-0.119,0.321125,7.768,11.58,86.0,9.25,46.55
-0.118,0.35475,7.787,11.571,86.0,9.24,46.58
-0.113,0.341875,7.804,11.562,86.0,9.25,46.58
-0.112,0.23825,7.819,11.552,86.0,9.24,46.59
-0.112,0.35225,7.833,11.538,86.0,9.24,46.57
-0.053,0.02325,7.843,11.526,86.0,9.24,46.5
-0.058,0.321125,7.852,11.511,86.0,9.24,46.48
-0.121,0.32625,7.858,11.498,86.0,9.24,46.57
0.141,0.336625,7.863,11.484,86.0,9.24,46.71
0.728,0.292625,7.866,11.471,86.0,9.24,46.9
-0.109,0.25125,7.868,11.459,87.0,9.23,47.1
-0.084,0.2745,7.868,11.446,87.0,9.24,47.3
0.017,0.401375,7.866,11.434,87.0,9.24,47.53
0.175,0.341875,7.863,11.422,87.0,9.24,47.71
-0.006,0.370375,7.859,11.41,87.0,9.23,47.93
-0.092,0.25375,7.853,11.4,87.0,9.24,48.07
-0.095,0.2745,7.847,11.39,87.0,9.24,48.2
-0.098,0.155375,7.839,11.38,87.0,9.23,48.3
-0.098,0.271875,7.83,11.374,87.0,9.19,48.39
-0.099,0.305625,7.82,11.369,87.0,9.16,48.36
-0.098,0.246,7.81,11.366,87.0,9.21,48.2
-0.035,0.2435,7.8,11.366,89.0,9.16,47.97
-0.055,0.191625,7.79,11.366,89.0,9.18,47.76
-0.11,0.305625,7.779,11.369,89.0,9.16,47.59
0.241,0.271875,7.768,11.372,89.0,9.17,47.45
0.625,0.227875,7.758,11.377,89.0,9.16,47.3
-0.102,0.114,7.748,11.382,89.0,9.16,47.15
-0.071,0.3445,7.738,11.387,89.0,9.16,47.01
0.035,0.25375,7.728,11.393,89.0,9.16,46.93
0.183,0.22525,7.718,11.399,89.0,9.16,46.87
-0.009,0.1165,7.711,11.401,89.0,9.17,46.83
-0.085,0.303,7.702,11.405,88.0,9.17,46.78
-0.09,0.357375,7.695,11.405,88.0,9.17,46.75
-0.091,0.170875,7.69,11.405,88.0,9.17,46.71
-0.088,0.2875,7.683,11.404,88.0,9.17,46.69
-0.089,0.199375,7.678,11.401,88.0,9.17,46.67
-0.088,0.0285,7.673,11.399,88.0,9.18,46.61
-0.038,0.305625,7.668,11.394,88.0,9.13,46.53
-0.028,0.246,7.663,11.389,88.0,9.14,46.5
-0.103,0.349625,7.658,11.384,88.0,9.14,46.5
0.016,0.313375,7.654,11.379,88.0,9.13,46.52
0.828,0.155375,7.65,11.372,88.0,9.11,46.5
-0.092,0.42475,7.648,11.365,88.0,9.12,46.5
-0.079,0.36,7.643,11.357,88.0,9.11,46.55
0.011,0.227875,7.638,11.348,88.0,9.12,46.55
0.178,0.1165,7.633,11.34,88.0,9.11,46.55
0.022,0.160625,7.629,11.332,88.0,9.11,46.52
-0.084,0.191625,7.627,11.323,88.0,9.11,46.47
-0.092,0.372875,7.627,11.317,88.0,9.11,46.43
-0.091,0.248625,7.627,11.309,88.0,9.11,46.44
-0.088,0.334125,7.627,11.302,88.0,9.11,46.48
-0.084,0.018125,7.625,11.296,88.0,9.11,46.5
-0.086,0.1165,7.623,11.292,88.0,9.11,46.47
-0.06,0.248625,7.62,11.285,88.0,9.11,46.47
0.0,0.32375,7.615,11.277,88.0,9.11,46.47
-0.077,0.163125,7.61,11.272,88.0,9.11,46.47
-0.113,0.199375,7.601,11.266,88.0,9.11,46.5
0.935,0.328875,7.588,11.256,88.0,9.11,46.54
-0.032,0.2875,7.577,11.246,88.0,9.11,46.62
-0.074,0.32625,7.567,11.236,88.0,9.11,46.82
-0.012,0.35475,7.561,11.227,88.0,9.11,47.08
0.151,0.196875,7.557,11.222,88.0,9.11,47.36
0.125,0.33925,7.557,11.215,89.0,9.11,47.59
-0.051,0.370375,7.561,11.21,89.0,9.11,47.78
-0.071,0.328875,7.566,11.203,89.0,9.11,48.01
-0.071,0.328875,7.567,11.195,89.0,9.11,48.2
-0.068,0.3885,7.563,11.19,89.0,9.11,48.42
-0.068,0.2305,7.559,11.183,89.0,9.11,48.56
-0.071,0.35475,7.549,11.178,89.0,9.12,48.67
-0.056,0.35475,7.539,11.17,89.0,9.11,48.76
0.015,0.347,7.533,11.165,89.0,9.11,48.85
-0.054,0.334125,7.53,11.16,104.0,9.11,48.83
-0.082,0.033625,7.53,11.154,104.0,9.11,48.69
-0.063,0.220125,7.532,11.143,104.0,9.11,48.3
-0.053,0.248625,7.532,11.143,104.0,9.11,48.28
-0.067,0.199375,7.533,11.138,104.0,9.11,48.12
-0.016,0.02325,7.535,11.133,104.0,9.11,48.02
0.129,0.025875,7.533,11.128,104.0,9.11,47.87
0.177,0.19425,7.528,11.123,104.0,9.11,47.66
-0.024,0.2745,7.527,11.118,104.0,9.11,47.5
-0.058,0.32625,7.53,11.113,104.0,9.11,47.39
-0.058,0.013,7.527,11.108,104.0,9.11,47.3
-0.058,0.36,7.531,11.106,104.0,9.11,47.22
-0.057,0.328875,7.531,11.1,83.0,9.11,47.1
-0.061,0.321125,7.531,11.096,83.0,9.11,47.04
-0.055,0.35225,7.529,11.091,83.0,9.11,46.98
0.018,0.227875,7.525,11.086,83.0,9.11,46.92
-0.046,0.227875,7.526,11.083,83.0,9.11,46.82
-0.079,0.372875,7.53,11.078,83.0,9.11,46.73
0.733,0.22525,7.53,11.075,83.0,9.11,46.63
0.154,0.328875,7.526,11.072,83.0,9.11,46.61
-0.071,0.25125,7.521,11.068,83.0,9.11,46.6
-0.025,0.196875,7.52,11.066,83.0,9.11,46.6
0.112,0.2875,7.52,11.065,90.0,9.11,46.58
0.187,0.35225,7.521,11.062,90.0,9.11,46.59
-0.022,0.1165,7.518,11.06,90.0,9.11,46.59
-0.063,0.199375,7.513,11.06,90.0,9.11,46.6
-0.064,0.277125,7.513,11.058,90.0,9.11,46.6
-0.066,0.119125,7.513,11.057,90.0,9.11,46.53
-0.058,0.2875,7.513,11.057,90.0,9.11,46.48
-0.07,0.220125,7.511,11.057,90.0,9.11,46.48
-0.042,0.126875,7.506,11.057,90.0,9.11,46.49
0.011,0.0155,7.509,11.057,90.0,9.11,46.49
-0.073,0.013,7.51,11.057,90.0,9.11,46.47
-0.116,0.114,7.51,11.056,90.0,9.11,46.46
0.9,0.36,7.504,11.055,88.0,9.11,46.48
-0.049,0.3445,7.5,11.055,88.0,9.11,46.45
-0.074,0.372875,7.51,11.052,88.0,9.11,46.55
-0.003,0.303,7.511,11.052,88.0,9.11,46.56
0.16,0.347,7.512,11.048,88.0,9.11,46.66
0.116,0.1295,7.504,11.047,88.0,9.11,46.86
-0.058,0.357375,7.501,11.043,88.0,9.11,47.08
-0.079,0.357375,7.508,11.041,88.0,9.11,47.32
-0.076,0.1165,7.509,11.039,88.0,9.11,47.54
-0.074,0.334125,7.509,11.035,90.0,9.11,47.75
-0.072,0.357375,7.504,11.033,90.0,9.11,47.98
-0.054,0.321125,7.505,11.034,90.0,9.11,48.36
0.006,0.35475,7.505,11.035,90.0,9.12,48.38
-0.081,0.163125,7.505,11.04,90.0,9.11,48.51
-0.112,0.33925,7.501,11.049,90.0,9.11,48.68
0.854,0.372875,7.5,11.063,90.0,9.11,48.86
-0.026,0.158,7.498,11.082,90.0,9.11,49.09
-0.076,0.25375,7.495,11.106,90.0,9.11,49.27
-0.014,0.29,7.494,11.131,94.0,9.11,49.39
0.149,0.29,7.493,11.159,94.0,9.11,49.4
0.127,0.26675,7.494,11.186,94.0,9.11,49.3
-0.056,0.202,7.495,11.216,94.0,9.11,49.06
-0.081,0.29,7.495,11.243,94.0,9.11,48.8
-0.078,0.196875,7.504,11.291,94.0,9.11,48.32
-0.076,0.018125,7.504,11.293,94.0,9.11,48.28
-0.08,0.163125,7.509,11.312,94.0,9.11,48.1
-0.052,0.160625,7.516,11.329,94.0,9.11,48.02
-0.002,0.321125,7.522,11.344,94.0,9.11,47.92
-0.088,0.321125,7.531,11.355,94.0,9.1,47.8
-0.119,0.1165,7.539,11.364,90.0,9.1,47.68
0.893,0.25125,7.547,11.372,90.0,9.1,47.6
-0.062,0.0285,7.557,11.377,90.0,9.1,47.5
-0.081,0.189,7.574,11.381,90.0,9.1,47.3
-0.014,0.215,7.576,11.381,90.0,9.1,47.29
0.15,0.2175,7.583,11.379,90.0,9.11,47.13
0.066,0.357375,7.591,11.378,90.0,9.1,47.01
-0.086,0.2875,7.597,11.376,90.0,9.11,46.95
-0.098,0.313375,7.603,11.379,90.0,9.11,46.89
-0.088,0.163125,7.608,11.388,90.0,9.11,46.87
-0.084,0.22275,7.613,11.405,86.0,9.11,46.81
-0.082,0.378125,7.617,11.434,86.0,9.11,46.76
-0.009,0.199375,7.62,11.474,86.0,9.11,46.76
-0.057,0.31075,7.625,11.521,86.0,9.11,46.74
-0.1,0.313375,7.634,11.579,86.0,9.11,46.72
0.472,0.35475,7.643,11.644,86.0,9.11,46.67
0.312,0.16575,7.655,11.716,86.0,9.11,46.6
-0.021,0.269375,7.672,11.785,86.0,9.11,46.55
0.028,0.02075,7.695,11.855,86.0,9.11,46.55
0.149,0.25125,7.721,11.927,86.0,9.11,46.57
0.233,0.25125,7.755,11.993,86.0,9.11,46.55
-0.001,0.033625,7.793,12.054,86.0,9.11,46.54
-0.061,0.32375,7.835,12.109,83.0,9.11,46.55
-0.064,0.308125,7.883,12.149,83.0,9.11,46.57
-0.069,0.303,7.979,12.209,83.0,9.11,46.52
-0.065,0.334125,7.986,12.213,83.0,9.11,46.53
-0.023,0.199375,8.036,12.234,83.0,9.11,46.49
-0.073,0.246,8.084,12.248,83.0,9.11,46.48
-0.117,0.19425,8.13,12.258,83.0,9.11,46.53
0.303,0.3445,8.174,12.261,83.0,9.11,46.66
0.409,0.303,8.212,12.257,83.0,9.11,46.81
-0.102,0.372875,8.245,12.248,83.0,9.11,46.99
-0.049,0.12425,8.275,12.234,83.0,9.1,47.17
0.097,0.277125,8.302,12.216,80.0,9.11,47.36
0.226,0.404,8.323,12.194,80.0,9.11,47.56
0.021,0.3755,8.341,12.17,80.0,9.11,47.74
-0.065,0.328875,8.355,12.141,80.0,9.11,47.92
-0.073,0.328875,8.365,12.108,80.0,9.11,48.1
-0.074,0.22525,8.371,12.076,80.0,9.11,48.24
-0.071,0.19425,8.376,12.045,80.0,9.11,48.38
-0.012,0.313375,8.378,12.014,80.0,9.1,48.58
-0.014,0.168375,8.376,11.981,80.0,9.1,48.76
-0.082,0.160625,8.374,11.948,80.0,9.1,48.91
0.05,0.199375,8.366,11.916,80.0,9.11,49.01
0.823,0.246,8.36,11.884,80.0,9.11,49.08
-0.048,0.391,8.35,11.854,80.0,9.11,49.08
-0.026,0.160625,8.326,11.798,80.0,9.11,48.83
0.069,0.196875,8.324,11.794,80.0,9.11,48.81
0.227,0.02325,8.309,11.768,80.0,9.11,48.63
0.051,0.119125,8.293,11.742,80.0,9.11,48.38
-0.055,0.160625,8.274,11.717,80.0,9.11,48.17
-0.068,0.018125,8.256,11.695,80.0,9.11,48.02
-0.073,0.246,8.234,11.674,80.0,9.11,47.91
-0.077,0.22275,8.212,11.654,80.0,9.11,47.83
-0.066,0.292625,8.19,11.634,80.0,9.11,47.72
0.002,0.199375,8.167,11.615,80.0,9.11,47.61
-0.076,0.284875,8.146,11.599,80.0,9.11,47.49
-0.105,0.02075,8.124,11.583,80.0,9.11,47.39
0.833,0.196875,8.1,11.565,80.0,9.11,47.25
0.045,0.31075,8.079,11.55,80.0,9.11,47.13
-0.076,0.119125,8.057,11.534,80.0,9.11,46.97
-0.026,0.160625,8.037,11.521,80.0,9.11,46.83
0.125,0.35475,8.017,11.508,80.0,9.11,46.74
0.157,0.12175,7.997,11.496,80.0,9.11,46.7
-0.052,0.316,7.977,11.483,80.0,9.11,46.66
-0.085,0.385875,7.957,11.472,80.0,9.11,46.61
-0.092,0.155375,7.94,11.46,80.0,9.11,46.58
-0.103,0.26675,7.923,11.45,80.0,9.11,46.57
-0.099,0.119125,7.906,11.44,80.0,9.11,46.56
-0.033,0.227875,7.889,11.43,80.0,9.11,46.54
-0.059,0.269375,7.874,11.42,80.0,9.11,46.54
-0.115,0.2745,7.859,11.412,80.0,9.11,46.5
0.245,0.25125,7.844,11.406,80.0,9.11,46.42
0.563,0.018125,7.83,11.401,80.0,9.11,46.38
-0.094,0.2875,7.817,11.399,80.0,9.11,46.4
-0.06,0.334125,7.805,11.4,80.0,9.11,46.41
0.052,0.38075,7.793,11.404,80.0,9.11,46.41
0.186,0.160625,7.783,11.41,80.0,9.11,46.41
-0.02,0.160625,7.773,11.42,79.0,9.11,46.43
-0.092,0.269375,7.765,11.431,79.0,9.11,46.44
-0.099,0.220125,7.757,11.444,79.0,9.11,46.45
-0.11,0.199375,7.755,11.457,79.0,9.11,46.47
-0.112,0.114,7.751,11.47,79.0,9.11,46.47
-0.098,0.22525,7.755,11.483,79.0,9.11,46.44
-0.115,0.35225,7.76,11.494,79.0,9.11,46.37
-0.099,0.349625,7.768,11.506,79.0,9.11,46.33
-0.126,0.336625,7.779,11.514,79.0,9.11,46.33
0.419,0.2435,7.794,11.523,79.0,9.11,46.35
0.348,0.041375,7.809,11.529,79.0,9.11,46.36
-0.113,0.018125,7.828,11.536,79.0,9.11,46.42
-0.08,0.23825,7.846,11.538,78.0,9.11,46.54
0.037,0.35225,7.868,11.54,78.0,9.11,46.71
0.142,0.3315,7.888,11.54,78.0,9.11,46.88
-0.066,0.191625,7.908,11.54,78.0,9.11,47.04
-0.125,0.341875,7.925,11.538,78.0,9.11,47.19
-0.13,0.370375,7.944,11.531,78.0,9.11,47.3
-0.142,0.038875,7.958,11.523,78.0,9.11,47.42
-0.145,0.38325,7.972,11.514,78.0,9.11,47.59
-0.143,0.36,7.983,11.504,78.0,9.11,47.78
-0.075,0.362625,7.992,11.494,78.0,9.11,47.96
-0.15,0.19425,8.001,11.482,78.0,9.11,48.14
-0.183,0.347,8.006,11.471,82.0,9.11,48.33
0.649,0.35475,8.008,11.459,82.0,9.11,48.52
-0.014,0.160625,8.011,11.446,82.0,9.11,48.68
-0.169,0.160625,8.012,11.434,82.0,9.11,48.82
-0.124,0.196875,8.01,11.421,82.0,9.11,48.92
0.016,0.199375,8.007,11.409,82.0,9.11,48.95
0.059,0.3755,8.003,11.396,82.0,9.11,48.93
-0.134,0.284875,7.992,11.377,82.0,9.11,48.78
-0.168,0.22525,7.991,11.374,82.0,9.11,48.77
-0.172,0.025875,7.983,11.365,82.0,9.11,48.64
-0.175,0.240875,7.974,11.355,82.0,9.11,48.48
-0.175,0.04925,7.964,11.345,87.0,9.11,48.32
-0.113,0.38325,7.954,11.335,87.0,9.11,48.16
-0.139,0.10875,7.942,11.327,87.0,9.11,48.01
-0.193,0.1165,7.929,11.318,87.0,9.11,47.84
0.135,0.018125,7.914,11.31,87.0,9.11,47.69
0.481,0.22525,7.901,11.303,87.0,9.11,47.48
-0.179,0.25125,7.886,11.297,87.0,9.11,47.28
-0.143,0.328875,7.874,11.292,87.0,9.11,47.15
-0.032,0.220125,7.863,11.287,87.0,9.11,47.06
0.095,0.334125,7.85,11.282,87.0,9.11,46.99
-0.093,0.300375,7.843,11.277,87.0,9.11,46.89
-0.159,0.2305,7.838,11.274,83.0,9.11,46.81
-0.163,0.212375,7.832,11.27,83.0,9.11,46.76
-0.163,0.199375,7.823,11.265,83.0,9.11,46.73
-0.158,0.1165,7.813,11.261,83.0,9.11,46.68
-0.144,0.227875,7.805,11.257,83.0,9.11,46.64
-0.068,0.02075,7.795,11.252,83.0,9.12,46.57
-0.14,0.1165,7.772,11.245,83.0,9.11,46.45
-0.17,0.114,7.771,11.244,83.0,9.11,46.44
0.721,0.35475,7.761,11.24,83.0,9.11,46.44
0.002,0.404,7.748,11.236,83.0,9.11,46.44
-0.158,0.261625,7.74,11.232,83.0,9.11,46.43
-0.108,0.25125,7.733,11.227,81.0,9.11,46.42
0.039,0.372875,7.727,11.222,81.0,9.11,46.44
0.091,0.38325,7.726,11.217,81.0,9.11,46.47
-0.103,0.3445,7.722,11.213,81.0,9.11,46.47
-0.136,0.25125,7.717,11.208,81.0,9.11,46.48
-0.141,0.3315,7.712,11.204,81.0,9.11,46.45
-0.14,0.2305,7.707,11.198,81.0,9.11,46.38
-0.13,0.119125,7.698,11.193,81.0,9.11,46.34
-0.094,0.160625,7.69,11.188,81.0,9.11,46.36
-0.053,0.168375,7.687,11.183,81.0,9.11,46.36
-0.14,0.22525,7.685,11.178,81.0,9.11,46.37
-0.152,0.31075,7.68,11.173,81.0,9.11,46.36
0.884,0.025875,7.675,11.168,80.0,9.11,46.38
-0.113,0.35475,7.675,11.163,80.0,9.11,46.44
-0.118,0.3445,7.673,11.158,80.0,9.11,46.54
-0.041,0.183875,7.667,11.151,80.0,9.11,46.68
0.126,0.160625,7.664,11.145,80.0,9.11,46.85
0.018,0.3445,7.659,11.14,80.0,9.11,46.99
-0.117,0.370375,7.653,11.135,80.0,9.11,47.15
-0.131,0.328875,7.65,11.13,80.0,9.11,47.4
-0.134,0.16575,7.65,11.128,80.0,9.11,47.65
-0.126,0.31075,7.652,11.121,80.0,9.11,47.88
-0.119,0.303,7.648,11.117,80.0,9.11,48.09
-0.052,0.336625,7.644,11.112,84.0,9.11,48.3
-0.075,0.391,7.638,11.108,84.0,9.11,48.52
-0.131,0.212375,7.634,11.103,84.0,9.11,48.72
0.29,0.2305,7.634,11.098,84.0,9.11,48.89
0.497,0.341875,7.634,11.093,84.0,9.11,48.96
-0.123,0.3445,7.631,11.088,84.0,9.11,48.91
-0.092,0.341875,7.623,11.083,84.0,9.11,48.74
0.02,0.256375,7.62,11.08,84.0,9.11,48.53
0.139,0.16575,7.622,11.076,84.0,9.11,48.32
-0.064,0.160625,7.618,11.071,84.0,9.11,48.13
-0.139,0.114,7.615,11.067,88.0,9.11,47.92
-0.15,0.114,7.608,11.063,88.0,9.11,47.73
-0.149,0.158,7.6,11.058,88.0,9.11,47.57
-0.146,0.196875,7.597,11.053,88.0,9.11,47.43
-0.114,0.114,7.597,11.049,88.0,9.11,47.32
-0.076,0.33925,7.593,11.041,88.0,9.11,46.99
-0.165,0.32375,7.592,11.041,88.0,9.11,46.96
-0.147,0.362625,7.593,11.038,88.0,9.11,46.84
0.799,0.264125,7.593,11.034,88.0,9.11,46.77
-0.153,0.069875,7.588,11.031,88.0,9.12,46.72
-0.151,0.0155,7.587,11.026,88.0,9.11,46.68
-0.064,0.3315,7.583,11.024,87.0,9.11,46.65
0.099,0.328875,7.581,11.021,87.0,9.11,46.62
-0.026,0.336625,7.58,11.018,87.0,9.11,46.61
-0.149,0.271875,7.577,11.011,87.0,9.11,46.59
-0.156,0.22525,7.577,11.013,87.0,9.11,46.59
-0.153,0.111375,7.572,11.009,87.0,9.11,46.53
-0.155,0.328875,7.568,11.004,87.0,9.11,46.47
-0.111,0.240875,7.563,11.003,87.0,9.11,46.47
-0.125,0.29,7.56,10.999,87.0,9.11,46.48
0.691,0.158,7.557,10.996,87.0,9.12,46.49
0.075,0.160625,7.553,10.993,87.0,9.11,46.49
0.631,0.349625,7.55,10.989,87.0,9.11,46.49
-0.186,0.292625,7.547,10.985,87.0,9.11,46.53
-0.15,0.31075,7.546,10.981,87.0,9.12,46.51
-0.03,0.1165,7.543,10.978,87.0,9.11,46.5
0.125,0.19425,7.54,10.974,87.0,9.11,46.47
-0.03,0.32375,7.538,10.97,87.0,9.11,46.38
-0.094,0.38075,7.536,10.966,87.0,9.11,46.31
-0.111,0.155375,7.535,10.963,87.0,9.11,46.35
-0.114,0.303,7.532,10.959,87.0,9.11,46.43
-0.11,0.264125,7.53,10.956,87.0,9.11,46.58
-0.058,0.22525,7.53,10.951,87.0,9.11,46.74
-0.027,0.316,7.527,10.947,85.0,9.11,46.97
-0.11,0.378125,7.525,10.943,85.0,9.11,47.2
-0.036,0.372875,7.525,10.941,85.0,9.11,47.42
0.857,0.305625,7.521,10.937,85.0,9.11,47.64
-0.099,0.297875,7.52,10.934,85.0,9.12,47.79
-0.084,0.264125,7.517,10.933,85.0,9.11,47.96
-0.002,0.303,7.515,10.933,85.0,9.11,48.15
0.151,0.269375,7.513,10.933,85.0,9.11,48.39
-0.003,0.321125,7.511,10.937,85.0,9.11,48.61
-0.105,0.271875,7.51,10.942,85.0,9.11,48.81
-0.112,0.114,7.51,10.95,88.0,9.11,48.92
-0.116,0.240875,7.508,10.957,88.0,9.11,48.95
-0.112,0.3315,7.51,10.967,88.0,9.11,48.85
-0.087,0.155375,7.51,10.977,88.0,9.11,48.65
-0.051,0.269375,7.511,10.985,88.0,9.11,48.45
-0.137,0.357375,7.513,10.995,88.0,9.11,48.17
-0.159,0.26675,7.518,11.001,88.0,9.11,47.92
0.891,0.19425,7.524,11.009,88.0,9.11,47.73
-0.125,0.033625,7.531,11.016,88.0,9.11,47.57
-0.133,0.02075,7.539,11.019,88.0,9.11,47.43
-0.059,0.292625,7.547,11.024,88.0,9.11,47.27
0.104,0.357375,7.557,11.025,86.0,9.11,47.13
0.0,0.38325,7.567,11.028,86.0,9.11,47.04
-0.137,0.12425,7.577,11.028,86.0,9.11,46.96
-0.149,0.163125,7.587,11.028,86.0,9.11,46.89
-0.153,0.19425,7.597,11.025,86.0,9.11,46.81
-0.151,0.31075,7.606,11.023,86.0,9.11,46.69
-0.15,0.04925,7.616,11.019,86.0,9.11,46.6
-0.089,0.3445,7.624,11.014,86.0,9.11,46.55
-0.099,0.16575,7.631,11.009,86.0,9.11,46.55
-0.161,0.372875,7.638,11.004,86.0,9.11,46.55
0.184,0.3885,7.643,10.999,86.0,9.11,46.53
0.539,0.03625,7.648,10.992,82.0,9.11,46.53
-0.153,0.35225,7.653,10.986,82.0,9.11,46.55
0.062,0.313375,7.654,10.98,82.0,9.11,46.56
0.074,0.240875,7.655,10.972,82.0,9.11,46.56
0.121,0.227875,7.659,10.966,82.0,9.11,46.58
-0.069,0.32375,7.659,10.959,82.0,9.11,46.54
-0.14,0.391,7.659,10.951,82.0,9.11,46.48
-0.144,0.2305,7.659,10.945,82.0,9.11,46.45
-0.143,0.297875,7.658,10.939,82.0,9.11,46.48
-0.141,0.357375,7.655,10.932,82.0,9.11,46.49
-0.108,0.03625,7.654,10.925,82.0,9.11,46.5
-0.068,0.29,7.652,10.919,82.0,9.11,46.5
-0.155,0.031125,7.648,10.914,80.0,9.11,46.54
-0.156,0.1165,7.644,10.908,80.0,9.11,46.55
0.635,0.235625,7.64,10.902,80.0,9.11,46.53
-0.122,0.196875,7.635,10.897,80.0,9.12,46.53
-0.139,0.3185,7.633,10.892,80.0,9.11,46.47
-0.057,0.3755,7.628,10.887,80.0,9.12,46.36
0.105,0.2175,7.623,10.882,80.0,9.12,46.35
-0.011,0.347,7.618,10.877,80.0,9.11,46.47
-0.134,0.357375,7.613,10.872,80.0,9.11,46.63
-0.142,0.35475,7.608,10.867,80.0,9.11,46.81
-0.137,0.199375,7.603,10.862,80.0,9.12,46.99
-0.131,0.36,7.598,10.859,80.0,9.12,47.21
-0.085,0.372875,7.593,10.855,80.0,9.12,47.43
-0.083,0.248625,7.588,10.85,80.0,9.12,47.65
-0.155,0.271875,7.583,10.845,80.0,9.12,47.87
0.04,0.378125,7.581,10.84,80.0,9.12,48.08
0.692,0.370375,7.576,10.835,80.0,9.12,48.22
-0.151,0.3885,7.571,10.83,80.0,9.12,48.36
-0.123,0.33925,7.567,10.826,80.0,9.11,48.5
0.034,0.292625,7.563,10.822,80.0,9.11,48.62
-0.002,0.227875,7.558,10.817,80.0,9.12,48.63
-0.039,0.370375,7.556,10.815,80.0,9.12,48.49
-0.114,0.1165,7.552,10.81,84.0,9.12,48.3
-0.118,0.1165,7.55,10.805,84.0,9.12,48.09
-0.11,0.2175,7.546,10.801,84.0,9.12,47.87
-0.104,0.3445,7.543,10.797,84.0,9.12,47.69
-0.074,0.33925,7.54,10.794,84.0,9.12,47.51
-0.027,0.163125,7.538,10.79,84.0,9.12,47.32
-0.108,0.02075,7.535,10.785,84.0,9.12,47.14
-0.133,0.25125,7.533,10.781,84.0,9.12,47.0
1.0,0.313375,7.531,10.777,84.0,9.12,46.91
-0.056,0.341875,7.53,10.775,84.0,9.12,46.84
0.046,0.033625,7.526,10.77,84.0,9.12,46.75
0.019,0.018125,7.523,10.767,84.0,9.12,46.7
0.154,0.26675,7.521,10.763,80.0,9.12,46.69
0.062,0.119125,7.52,10.759,80.0,9.12,46.69
-0.074,0.313375,7.517,10.755,80.0,9.12,46.66
-0.086,0.163125,7.515,10.753,80.0,9.13,46.65
-0.087,0.271875,7.512,10.749,80.0,9.13,46.6
-0.081,0.215,7.51,10.745,80.0,9.13,46.53
-0.077,0.15275,7.509,10.742,80.0,9.13,46.47
-0.037,0.292625,7.506,10.738,80.0,9.13,46.47
-0.012,0.25375,7.505,10.735,80.0,9.13,46.48
-0.094,0.357375,7.501,10.732,80.0,9.13,46.49
-0.02,0.235625,7.5,10.728,80.0,9.12,46.49
0.92,0.25375,7.499,10.725,80.0,9.12,46.5
-0.078,0.313375,7.498,10.72,80.0,9.12,46.53
-0.071,0.2305,7.495,10.718,80.0,9.13,46.55
0.012,0.334125,7.494,10.715,80.0,9.12,46.63
0.176,0.38325,7.49,10.713,80.0,9.13,47.85
0.028,0.35225,7.49,10.709,80.0,9.13,48.27
-0.077,0.3885,7.489,10.705,80.0,9.13,48.21
-0.085,0.427375,7.488,10.703,80.0,9.13,47.98
-0.089,0.398875,7.485,10.702,80.0,9.13,47.62
-0.083,0.347,7.483,10.7,80.0,9.13,47.23
-0.085,0.328875,7.483,10.699,80.0,9.13,46.91
-0.088,0.23825,7.48,10.699,80.0,9.13,46.54
-0.025,0.075125,7.48,10.698,79.0,9.13,46.23
-0.046,0.08025,7.48,10.695,79.0,9.13,45.93
-0.104,0.16575,7.484,10.692,79.0,9.13,45.67
0.232,0.1165,7.486,10.688,79.0,9.12,45.38
-0.108,0.038875,7.491,10.686,79.0,9.13,45.43
-0.097,0.046625,7.496,10.683,79.0,9.13,45.9
-0.079,0.160625,7.501,10.678,79.0,9.13,46.27
0.024,0.033625,7.51,10.676,79.0,9.13,46.45
0.157,0.362625,7.519,10.672,79.0,9.13,46.56
-0.035,0.362625,7.528,10.67,79.0,9.13,46.72
-0.107,0.385875,7.528,10.667,79.0,9.13,46.92
-0.116,0.22525,7.528,10.663,79.0,9.13,47.06
-0.114,0.3885,7.532,10.66,79.0,9.13,47.2
-0.112,0.297875,7.531,10.653,79.0,9.13,47.51
-0.114,0.02075,7.53,10.652,79.0,9.13,47.53
-0.111,0.013,7.526,10.648,79.0,9.13,47.5
-0.043,0.31075,7.518,10.643,79.0,9.13,47.31
-0.09,0.29,7.516,10.641,79.0,9.12,47.04
-0.133,0.248625,7.516,10.636,79.0,9.12,46.84
0.56,0.02325,7.513,10.633,79.0,9.13,46.73
0.215,0.013,7.507,10.628,79.0,9.12,46.65
-0.128,0.31075,7.505,10.626,79.0,9.12,46.54
-0.085,0.018125,7.5,10.621,79.0,9.12,46.46
0.044,0.321125,7.492,10.618,79.0,9.13,46.42
0.132,0.38325,7.482,10.616,79.0,9.13,46.35
-0.067,0.03625,7.469,10.612,79.0,9.13,46.26
-0.116,0.018125,7.454,10.61,79.0,9.13,46.22
-0.118,0.2745,7.425,10.606,79.0,9.13,46.12
-0.111,0.341875,7.401,10.603,79.0,9.12,46.02
-0.11,0.16575,7.384,10.601,79.0,9.13,45.97
-0.108,0.29,7.368,10.6,79.0,9.13,45.97
-0.045,0.22525,7.352,10.6,79.0,9.13,45.97
-0.093,0.196875,7.336,10.6,79.0,9.13,45.93
-0.13,0.349625,7.322,10.6,84.0,9.13,45.9
-0.103,0.385875,7.308,10.602,84.0,9.13,45.93
-0.115,0.292625,7.3,10.605,84.0,9.13,45.95
-0.124,0.29,7.295,10.608,84.0,9.13,45.94
-0.083,0.347,7.291,10.611,84.0,9.13,45.93
0.046,0.191625,7.285,10.616,84.0,9.13,45.85
0.14,0.189,7.276,10.618,84.0,9.13,45.78
-0.058,0.29,7.269,10.622,84.0,9.13,45.77
-0.105,0.284875,7.267,10.626,84.0,9.13,45.8
-0.106,0.297875,7.267,10.628,84.0,9.13,45.8
-0.098,0.31075,7.267,10.632,84.0,9.13,45.78
-0.093,0.35475,7.264,10.633,83.0,9.13,45.78
-0.092,0.38075,7.261,10.637,83.0,9.13,45.83
-0.043,0.341875,7.265,10.64,83.0,9.13,45.83
-0.023,0.2745,7.265,10.641,83.0,9.13,45.86
-0.097,0.2435,7.272,10.642,83.0,9.13,45.95
0.019,0.2745,7.277,10.645,83.0,9.13,46.04
0.885,0.19425,7.282,10.646,83.0,9.13,46.17
-0.078,0.220125,7.289,10.647,83.0,9.13,46.34
-0.062,0.2875,7.292,10.647,83.0,9.13,46.51
0.028,0.292625,7.297,10.647,83.0,9.12,46.65
0.195,0.22275,7.304,10.647,83.0,9.13,46.83
0.041,0.349625,7.306,10.647,82.0,9.13,47.01
-0.063,0.292625,7.305,10.65,82.0,9.13,47.22
-0.072,0.38325,7.314,10.653,82.0,9.13,47.43
-0.071,0.119125,7.312,10.662,82.0,9.13,47.61
-0.065,0.160625,7.32,10.671,82.0,9.13,47.75
-0.064,0.292625,7.333,10.683,82.0,9.13,47.77
-0.066,0.271875,7.332,10.698,82.0,9.13,47.81
-0.011,0.35475,7.322,10.714,82.0,9.12,47.87
-0.009,0.347,7.331,10.734,82.0,9.12,47.92
-0.078,0.119125,7.357,10.753,82.0,9.12,47.88
0.11,0.02325,7.382,10.771,82.0,9.13,47.72
0.828,0.111375,7.388,10.789,87.0,9.13,47.56
-0.071,0.347,7.395,10.805,87.0,9.13,47.41
-0.053,0.32375,7.422,10.82,87.0,9.13,47.31
0.037,0.191625,7.468,10.833,87.0,9.13,47.28
0.198,0.227875,7.508,10.845,87.0,9.13,47.24
0.028,0.246,7.529,10.853,87.0,9.13,47.06
-0.07,0.12175,7.543,10.862,87.0,9.13,46.84
-0.079,0.02075,7.571,10.866,87.0,9.13,46.73
-0.081,0.155375,7.614,10.869,87.0,9.13,46.64
-0.076,0.284875,7.642,10.871,87.0,9.13,46.55
-0.076,0.235625,7.65,10.868,87.0,9.13,46.45
-0.077,0.341875,7.67,10.867,85.0,9.13,46.35
-0.057,0.328875,7.702,10.866,85.0,9.13,46.25
0.0,0.0285,7.722,10.863,85.0,9.13,46.18
-0.079,0.39625,7.722,10.861,85.0,9.13,46.13
-0.116,0.305625,7.738,10.861,85.0,9.13,46.07
0.94,0.33925,7.766,10.861,85.0,9.13,45.97
-0.03,0.33925,7.769,10.864,85.0,9.13,45.89
-0.087,0.313375,7.766,10.869,85.0,9.13,45.87
-0.029,0.2175,7.776,10.875,85.0,9.13,45.87
0.126,0.336625,7.794,10.885,85.0,9.13,45.87
0.122,0.199375,7.793,10.907,87.0,9.13,45.87
-0.06,0.341875,7.794,10.909,87.0,9.13,45.87
-0.086,0.204625,7.803,10.92,87.0,9.13,45.89
-0.087,0.297875,7.83,10.934,87.0,9.13,45.89
-0.086,0.398875,7.843,10.951,87.0,9.13,45.9
-0.085,0.341875,7.845,10.974,87.0,9.13,45.86
-0.091,0.23825,7.865,11.006,87.0,9.12,45.79
-0.091,0.220125,7.897,11.05,87.0,9.13,45.76
-0.036,0.27975,7.917,11.108,87.0,9.13,45.77
-0.042,0.372875,7.925,11.178,87.0,9.13,45.78
-0.108,0.38325,7.94,11.261,87.0,9.13,45.78
0.18,0.25375,7.971,11.356,86.0,9.13,45.8
0.646,0.305625,8.003,11.462,86.0,9.13,45.86
-0.111,0.328875,8.018,11.577,86.0,9.13,46.02
-0.088,0.271875,8.044,11.695,86.0,9.13,46.2
0.013,0.227875,8.085,11.811,86.0,9.13,46.39
0.161,0.018125,8.135,11.925,86.0,9.13,46.49
-0.017,0.160625,8.167,12.027,86.0,9.13,46.61
-0.103,0.297875,8.199,12.13,86.0,9.13,46.76
-0.108,0.38075,8.239,12.229,86.0,9.13,46.95
-0.104,0.297875,8.293,12.322,86.0,9.13,47.15
-0.103,0.25125,8.331,12.402,88.0,9.13,47.41
-0.108,0.215,8.364,12.469,88.0,9.13,47.61
-0.098,0.044,8.4,12.524,88.0,9.13,47.82
-0.033,0.018125,8.447,12.575,88.0,9.13,47.99
-0.103,0.264125,8.484,12.615,88.0,9.13,48.07
-0.134,0.25125,8.511,12.648,88.0,9.13,48.04
0.834,0.1165,8.536,12.671,88.0,9.13,47.96
-0.034,0.264125,8.594,12.692,88.0,9.13,47.85
-0.12,0.277125,8.597,12.693,88.0,9.13,47.84
-0.066,0.02325,8.617,12.689,88.0,9.13,47.78
0.084,0.160625,8.631,12.679,88.0,9.13,47.66
0.109,0.308125,8.645,12.666,91.0,9.13,47.53
-0.085,0.292625,8.657,12.648,91.0,9.13,47.4
-0.11,0.246,8.673,12.621,91.0,9.13,47.23
-0.111,0.269375,8.682,12.586,91.0,9.13,47.06
-0.109,0.26675,8.679,12.549,91.0,9.13,46.84
-0.107,0.269375,8.675,12.507,91.0,9.13,46.63
-0.085,0.385875,8.675,12.464,91.0,9.13,46.45
-0.032,0.26675,8.675,12.419,91.0,9.13,46.34
-0.109,0.246,8.649,12.331,91.0,9.13,46.21
-0.149,0.025875,8.647,12.325,91.0,9.13,46.2
0.933,0.02075,8.634,12.281,88.0,9.13,46.13
-0.073,0.246,8.626,12.239,88.0,9.13,46.07
-0.106,0.12175,8.602,12.196,88.0,9.13,46.07
-0.04,0.119125,8.573,12.152,88.0,9.13,46.04
0.12,0.12425,8.545,12.11,88.0,9.13,46.0
0.081,0.22525,8.534,12.069,88.0,9.13,45.92
-0.085,0.321125,8.51,12.03,88.0,9.13,45.85
-0.102,0.372875,8.453,11.957,88.0,9.13,45.81
-0.102,0.365125,8.449,11.953,88.0,9.13,45.81
-0.099,0.29525,8.425,11.92,88.0,9.13,45.81
-0.1,0.308125,8.406,11.885,88.0,9.13,45.82
-0.101,0.196875,8.376,11.849,86.0,9.13,45.84
-0.041,0.35225,8.339,11.814,86.0,9.13,45.86
-0.05,0.341875,8.305,11.786,86.0,9.13,45.87
-0.114,0.199375,8.275,11.763,86.0,9.13,45.85
0.23,0.119125,8.258,11.741,86.0,9.13,45.85
0.661,0.1165,8.226,11.716,86.0,9.13,45.8
-0.107,0.155375,8.185,11.69,86.0,9.13,45.76
-0.08,0.38325,8.16,11.666,86.0,9.13,45.75
0.02,0.31075,8.131,11.644,86.0,9.13,45.75
0.167,0.292625,8.11,11.624,86.0,9.13,45.76
-0.085,0.35475,8.08,11.602,86.0,9.13,45.76
-0.098,0.163125,8.044,11.582,83.0,9.13,45.76
-0.099,0.31075,8.014,11.562,83.0,9.13,45.8
-0.099,0.362625,7.988,11.543,83.0,9.13,45.89
-0.096,0.35475,7.961,11.525,83.0,9.13,46.01
-0.096,0.163125,7.934,11.507,83.0,9.13,46.17
-0.091,0.372875,7.909,11.49,83.0,9.13,46.3
-0.015,0.36,7.884,11.474,83.0,9.13,46.48
-0.079,0.246,7.859,11.459,83.0,9.13,46.71
-0.113,0.261625,7.836,11.444,83.0,9.13,46.97
0.729,0.393625,7.812,11.431,83.0,9.13,47.2
0.137,0.1165,7.791,11.416,83.0,9.13,47.41
-0.106,0.114,7.769,11.404,84.0,9.13,47.6
-0.063,0.02325,7.749,11.391,84.0,9.13,47.81
0.068,0.160625,7.731,11.379,84.0,9.14,47.96
0.145,0.033625,7.714,11.368,84.0,9.13,48.03
-0.053,0.02325,7.695,11.355,84.0,9.13,47.91
-0.096,0.0285,7.679,11.344,84.0,9.13,47.71
-0.098,0.02325,7.662,11.333,84.0,9.13,47.72
-0.099,0.22275,7.645,11.323,84.0,9.13,49.09
-0.097,0.22525,7.615,11.302,84.0,9.13,49.65
-0.097,0.3315,7.614,11.302,84.0,9.13,49.59
-0.09,0.336625,7.598,11.292,84.0,9.13,49.28
-0.02,0.36,7.583,11.283,84.0,9.13,49.02
-0.073,0.341875,7.572,11.273,84.0,9.13,48.82
-0.113,0.391,7.562,11.263,84.0,9.13,48.53
0.599,0.2435,7.552,11.256,84.0,9.13,48.24
0.234,0.16575,7.546,11.246,84.0,9.13,48.05
-0.115,0.32625,7.538,11.238,84.0,9.13,47.95
-0.076,0.32625,7.531,11.23,84.0,9.13,47.96
0.046,0.1165,7.524,11.221,84.0,9.14,47.95
0.142,0.220125,7.517,11.214,84.0,9.13,47.95
-0.056,0.393625,7.515,11.206,84.0,9.13,47.88
-0.107,0.370375,7.519,11.195,84.0,9.13,47.87
-0.107,0.357375,7.535,11.184,84.0,9.13,47.5
-0.101,0.385875,7.553,11.171,84.0,9.13,47.05
-0.102,0.269375,7.566,11.158,84.0,9.13,47.42
-0.105,0.03625,7.566,11.146,84.0,9.13,47.57
-0.055,0.303,7.561,11.136,84.0,9.13,47.38
-0.058,0.328875,7.556,11.13,84.0,9.13,47.23
-0.129,0.207125,7.546,11.123,84.0,9.13,47.2
0.134,0.391,7.54,11.114,84.0,9.13,47.39
0.64,0.28225,7.538,11.106,84.0,9.13,47.65
-0.131,0.393625,7.532,11.099,84.0,9.13,47.75
-0.106,0.341875,7.532,11.093,84.0,9.13,47.7
-0.007,0.33925,7.546,11.088,85.0,9.13,47.59
0.134,0.385875,7.552,11.083,85.0,9.13,47.48
-0.046,0.378125,7.556,11.078,85.0,9.13,47.38
-0.127,0.316,7.557,11.072,85.0,9.13,47.3
-0.135,0.31075,7.561,11.07,85.0,9.13,47.15
-0.131,0.02075,7.562,11.07,85.0,9.13,46.87
-0.128,0.02325,7.562,11.07,85.0,9.13,46.54
-0.119,0.02325,7.56,11.07,85.0,9.13,46.11
-0.049,0.297875,7.56,11.071,85.0,9.13,45.79
-0.115,0.191625,7.563,11.073,85.0,9.13,45.54
-0.146,0.163125,7.568,11.077,85.0,9.13,45.3
0.8,0.02325,7.57,11.08,84.0,9.13,45.21
0.01,0.163125,7.582,11.083,84.0,9.13,45.29
-0.126,0.02075,7.589,11.089,84.0,9.13,45.55
-0.053,0.1165,7.586,11.101,84.0,9.13,45.92
0.026,0.163125,7.594,11.117,84.0,9.13,46.29
0.038,0.1165,7.613,11.141,84.0,9.13,46.62
-0.076,0.29,7.637,11.178,84.0,9.13,46.96
-0.108,0.3185,7.655,11.229,84.0,9.13,47.27
-0.107,0.357375,7.68,11.294,84.0,9.13,47.54
-0.103,0.126875,7.699,11.378,84.0,9.13,47.8
-0.102,0.025875,7.71,11.476,87.0,9.14,48.04
-0.081,0.163125,7.714,11.589,87.0,9.13,48.25
-0.024,0.25125,7.726,11.712,87.0,9.13,48.43
-0.108,0.0285,7.76,11.84,87.0,9.13,48.49
-0.145,0.0285,7.778,11.969,87.0,9.13,48.46
0.951,0.02325,7.825,12.096,87.0,9.12,48.23
-0.049,0.155375,7.884,12.219,87.0,9.13,47.95
-0.027,0.36,7.947,12.329,87.0,9.13,47.74
-0.046,0.119125,8.014,12.429,87.0,9.13,47.61
0.116,0.336625,8.082,12.51,87.0,9.13,47.51
0.077,0.31075,8.141,12.575,87.0,9.14,47.41
-0.087,0.29,8.2,12.627,87.0,9.13,47.28
-0.106,0.2875,8.258,12.671,87.0,9.13,47.17
-0.106,0.240875,8.304,12.704,87.0,9.13,47.1
-0.104,0.336625,8.344,12.734,87.0,9.13,47.04
-0.1,0.261625,8.372,12.755,87.0,9.14,46.97
-0.062,0.269375,8.399,12.771,87.0,9.14,46.86
-0.037,0.227875,8.426,12.785,87.0,9.14,46.72
-0.118,0.38075,8.454,12.803,87.0,9.14,46.65
-0.05,0.033625,8.485,12.823,87.0,9.13,46.66
0.884,0.119125,8.512,12.853,87.0,9.12,46.65
-0.098,0.19425,8.523,12.897,87.0,9.12,46.63
-0.093,0.19425,8.545,12.948,82.0,9.12,46.61
-0.01,0.401375,8.57,13.001,82.0,9.13,46.63
0.149,0.372875,8.591,13.056,82.0,9.13,46.65
0.011,0.303,8.602,13.102,82.0,9.14,46.66
-0.095,0.02075,8.593,13.146,82.0,9.13,46.67
-0.107,0.29525,8.585,13.181,82.0,9.14,46.65
-0.106,0.16575,8.58,13.216,82.0,9.14,46.59
-0.107,0.15275,8.581,13.244,82.0,9.13,46.56
-0.109,0.362625,8.605,13.261,82.0,9.13,46.58
-0.087,0.32375,8.625,13.268,82.0,9.13,46.59
-0.034,0.246,8.649,13.27,82.0,9.13,46.6
-0.121,0.3315,8.677,13.264,82.0,9.13,46.59
-0.154,0.328875,8.716,13.257,80.0,9.13,46.61
0.907,0.3185,8.755,13.248,80.0,9.14,46.65
-0.092,0.38325,8.791,13.233,80.0,9.13,46.66
-0.118,0.25375,8.807,13.209,80.0,9.13,46.66
-0.056,0.26675,8.794,13.185,80.0,9.13,46.66
0.107,0.406625,8.766,13.15,80.0,9.13,46.6
0.044,0.35225,8.743,13.111,80.0,9.13,46.55
-0.105,0.259,8.724,13.067,80.0,9.13,46.6
-0.122,0.271875,8.707,13.02,80.0,9.13,46.69
-0.117,0.406625,8.689,12.969,80.0,9.13,46.83
-0.114,0.25125,8.674,12.918,80.0,9.12,46.96
-0.118,0.372875,8.659,12.864,80.0,9.12,47.14
-0.063,0.357375,8.645,12.811,80.0,9.12,47.33
-0.083,0.2875,8.63,12.76,80.0,9.12,47.56
-0.143,0.393625,8.614,12.708,80.0,9.12,47.71
0.232,0.308125,8.596,12.658,80.0,9.11,47.9
0.518,0.199375,8.576,12.611,80.0,9.12,48.02
-0.151,0.12175,8.557,12.565,80.0,9.12,48.1
-0.122,0.160625,8.537,12.522,80.0,9.12,48.15
-0.012,0.163125,8.513,12.479,80.0,9.12,48.15
0.118,0.041375,8.488,12.442,80.0,9.13,48.08
-0.069,0.19425,8.466,12.406,80.0,9.13,47.91
-0.132,0.163125,8.446,12.371,84.0,9.13,47.73
-0.131,0.227875,8.431,12.337,84.0,9.13,47.61
-0.124,0.328875,8.418,12.307,84.0,9.13,47.52
-0.118,0.2305,8.411,12.278,84.0,9.13,47.44
-0.117,0.160625,8.413,12.248,84.0,9.13,47.37
-0.055,0.220125,8.423,12.22,84.0,9.13,47.24
-0.07,0.264125,8.438,12.192,84.0,9.13,47.09
-0.125,0.220125,8.449,12.166,84.0,9.12,46.97
0.253,0.196875,8.451,12.14,84.0,9.12,46.93
0.614,0.199375,8.446,12.115,84.0,9.12,46.92
-0.115,0.38325,8.438,12.088,84.0,9.12,46.88
-0.083,0.328875,8.437,12.063,84.0,9.12,46.84
0.024,0.2875,8.438,12.039,82.0,9.12,46.8
0.161,0.212375,8.44,12.015,82.0,9.12,46.81
-0.022,0.240875,8.436,11.993,82.0,9.12,46.81
-0.09,0.39625,8.431,11.97,82.0,9.12,46.81
-0.095,0.22525,8.422,11.947,82.0,9.12,46.78
-0.092,0.248625,8.414,11.926,82.0,9.12,46.71
-0.089,0.2875,8.402,11.905,82.0,9.12,46.66
-0.089,0.334125,8.39,11.883,82.0,9.12,46.65
-0.076,0.25125,8.376,11.863,82.0,9.12,46.66
-0.01,0.32375,8.361,11.843,82.0,9.12,46.68
-0.084,0.160625,8.344,11.824,82.0,9.12,46.69
-0.113,0.271875,8.326,11.806,82.0,9.12,46.7
0.913,0.308125,8.311,11.788,82.0,9.12,46.72
-0.004,0.36,8.3,11.771,82.0,9.12,46.73
-0.097,0.36,8.283,11.754,82.0,9.12,46.75
-0.046,0.362625,8.262,11.737,82.0,9.12,46.74
0.104,0.35225,8.241,11.722,82.0,9.12,46.7
0.12,0.1165,8.22,11.705,82.0,9.12,46.64
-0.069,0.26675,8.199,11.69,82.0,9.12,46.64
-0.095,0.269375,8.18,11.676,82.0,9.11,46.66
-0.097,0.25125,8.162,11.662,82.0,9.12,46.67
-0.098,0.1165,8.146,11.649,82.0,9.12,46.66
-0.098,0.316,8.126,11.635,82.0,9.12,46.66
-0.099,0.3185,8.107,11.623,82.0,9.12,46.68
-0.087,0.38075,8.088,11.61,82.0,9.12,46.71
-0.019,0.32625,8.073,11.599,82.0,9.12,46.77
-0.09,0.0285,8.055,11.586,82.0,9.12,46.83
-0.118,0.336625,8.038,11.575,82.0,9.12,46.9
0.859,0.240875,8.023,11.564,82.0,9.12,47.01
0.009,0.3755,8.007,11.554,82.0,9.11,47.17
-0.112,0.26675,7.987,11.542,82.0,9.11,47.36
-0.066,0.246,7.97,11.532,82.0,9.12,47.56
0.075,0.196875,7.952,11.522,82.0,9.12,47.74
0.107,0.119125,7.935,11.512,85.0,9.12,47.9
-0.089,0.26675,7.92,11.499,85.0,9.11,48.03
-0.123,0.196875,7.906,11.492,85.0,9.12,48.1
-0.129,0.013,7.894,11.482,85.0,9.12,48.1
-0.13,0.160625,7.88,11.472,85.0,9.11,48.0
-0.13,0.246,7.867,11.464,85.0,9.11,47.82
-0.133,0.03625,7.855,11.456,85.0,9.12,47.64
-0.124,0.1165,7.843,11.447,85.0,9.12,47.51
-0.061,0.264125,7.83,11.439,85.0,9.12,47.42
-0.131,0.398875,7.818,11.431,85.0,9.12,47.33
-0.159,0.406625,7.804,11.422,85.0,9.11,47.22
0.765,0.362625,7.792,11.415,83.0,9.12,47.14
-0.026,0.385875,7.78,11.405,83.0,9.12,47.1
-0.163,0.32625,7.768,11.399,83.0,9.12,47.06
-0.113,0.160625,7.758,11.392,83.0,9.12,47.02
0.037,0.1165,7.75,11.384,83.0,9.11,46.98
0.085,0.114,7.741,11.378,83.0,9.12,46.9
-0.114,0.196875,7.733,11.37,83.0,9.12,46.8
-0.151,0.02325,7.726,11.363,83.0,9.11,46.77
-0.154,0.19425,7.718,11.355,83.0,9.12,46.77
-0.145,0.31075,7.711,11.348,83.0,9.12,46.77
-0.143,0.025875,7.701,11.34,83.0,9.11,46.77
-0.143,0.160625,7.692,11.333,84.0,9.12,46.76
-0.076,0.160625,7.684,11.325,84.0,9.11,46.77
-0.114,0.183875,7.678,11.318,84.0,9.12,46.79
-0.155,0.38325,7.674,11.312,84.0,9.11,46.8
0.379,0.36,7.673,11.304,84.0,9.12,46.81
0.38,0.357375,7.664,11.3,84.0,9.12,46.77
-0.142,0.35225,7.658,11.292,84.0,9.12,46.72
-0.104,0.321125,7.653,11.287,84.0,9.12,46.79
0.016,0.12425,7.648,11.282,84.0,9.12,46.85
0.137,0.349625,7.641,11.275,84.0,9.12,46.65
-0.06,0.321125,7.635,11.27,84.0,9.12,46.53
-0.119,0.36775,7.628,11.265,83.0,9.12,46.71
-0.121,0.370375,7.62,11.26,83.0,9.12,47.02
-0.117,0.26675,7.608,11.255,83.0,9.12,47.32
-0.112,0.126875,7.596,11.25,83.0,9.12,47.7
-0.109,0.031125,7.587,11.245,83.0,9.12,48.26
-0.105,0.0285,7.582,11.236,83.0,9.12,49.33
-0.037,0.025875,7.582,11.235,83.0,9.12,49.4
-0.052,0.02075,7.587,11.23,83.0,9.12,49.76
-0.108,0.031125,7.582,11.225,83.0,9.12,49.82
0.266,0.02325,7.576,11.22,83.0,9.12,49.5
0.621,0.018125,7.575,11.215,83.0,9.12,49.52
-0.109,0.23825,7.571,11.213,89.0,9.12,49.66
-0.079,0.406625,7.568,11.209,89.0,9.12,49.83
0.023,0.370375,7.573,11.205,89.0,9.12,49.85
0.17,0.269375,7.572,11.202,89.0,9.12,49.84
-0.016,0.163125,7.573,11.199,89.0,9.12,49.82
-0.095,0.0155,7.573,11.195,89.0,9.12,49.77
-0.101,0.196875,7.568,11.19,89.0,9.12,49.69
-0.101,0.2745,7.563,11.188,89.0,9.12,49.54
-0.098,0.32625,7.56,11.183,89.0,9.12,49.52
-0.097,0.328875,7.566,11.182,89.0,9.12,49.49
-0.098,0.336625,7.572,11.178,86.0,9.12,49.49
-0.054,0.31075,7.552,11.177,86.0,9.12,49.5
-0.025,0.365125,7.539,11.174,86.0,9.11,49.5
-0.101,0.3185,7.526,11.174,86.0,9.12,49.54
-0.065,0.29525,7.517,11.174,86.0,9.12,49.46
0.948,0.19425,7.504,11.174,86.0,9.12,49.43
-0.085,0.292625,7.466,11.177,86.0,9.12,49.24
-0.07,0.19425,7.432,11.178,86.0,9.12,49.19
0.015,0.2175,7.42,11.184,86.0,9.12,49.25
0.199,0.3185,7.439,11.191,86.0,9.11,49.24
0.085,0.1165,7.465,11.205,86.0,9.12,49.21
-0.044,0.269375,7.485,11.227,84.0,9.12,49.13
-0.054,0.119125,7.486,11.259,84.0,9.12,49.07
-0.056,0.292625,7.48,11.303,84.0,9.11,48.97
-0.058,0.2175,7.487,11.362,84.0,9.12,48.97
-0.055,0.22525,7.493,11.433,84.0,9.11,48.97
-0.058,0.391,7.496,11.519,84.0,9.11,48.86
-0.044,0.357375,7.507,11.619,84.0,9.11,48.77
0.019,0.362625,7.527,11.729,84.0,9.11,48.72
-0.06,0.269375,7.553,11.85,84.0,9.11,48.78
-0.093,0.36775,7.582,11.972,84.0,9.11,48.85
0.912,0.414375,7.618,12.091,84.0,9.11,48.78
0.0,0.126875,7.659,12.209,84.0,9.11,48.66
-0.083,0.305625,7.706,12.321,82.0,9.12,48.61
-0.035,0.111375,7.757,12.427,82.0,9.11,48.61
0.114,0.32375,7.814,12.525,82.0,9.11,48.59
0.135,0.308125,7.87,12.611,82.0,9.11,48.59
-0.063,0.36,7.936,12.684,82.0,9.12,48.57
-0.095,0.02325,8.015,12.744,82.0,9.12,48.5
-0.103,0.26675,8.091,12.796,82.0,9.12,48.42
-0.105,0.202,8.171,12.836,82.0,9.11,48.43
-0.108,0.025875,8.244,12.867,82.0,9.11,48.43
-0.111,0.308125,8.324,12.886,82.0,9.11,48.44
-0.054,0.269375,8.396,12.892,82.0,9.11,48.38
-0.076,0.196875,8.449,12.887,82.0,9.12,48.26
-0.135,0.0285,8.495,12.876,82.0,9.11,48.0
-0.155,0.196875,8.538,12.856,82.0,9.11,47.71
-0.134,0.0155,8.569,12.829,82.0,9.12,47.45
-0.142,0.271875,8.595,12.798,82.0,9.12,47.21
-0.11,0.264125,8.619,12.763,82.0,9.12,47.06
0.0,0.111375,8.639,12.723,82.0,9.11,46.94
0.142,0.2875,8.658,12.679,82.0,9.11,46.85
-0.051,0.119125,8.674,12.633,82.0,9.11,46.82
-0.123,0.199375,8.683,12.586,82.0,9.12,46.78
-0.129,0.19425,8.692,12.539,82.0,9.11,46.69
-0.125,0.32625,8.697,12.493,83.0,9.11,46.55
-0.122,0.3885,8.696,12.446,83.0,9.12,46.31
-0.121,0.391,8.704,12.402,83.0,9.12,46.21
-0.051,0.36775,8.684,12.36,83.0,9.11,46.21
-0.092,0.36,8.667,12.321,83.0,9.12,46.28
-0.138,0.0285,8.643,12.285,83.0,9.11,46.38
0.453,0.36775,8.613,12.253,83.0,9.11,46.54
0.353,0.36775,8.576,12.224,83.0,9.11,46.79
-0.136,0.25125,8.513,12.197,83.0,9.11,47.06
-0.1,0.36,8.463,12.175,83.0,9.11,47.31
0.017,0.38075,8.433,12.155,83.0,9.11,47.56
0.133,0.271875,8.406,12.12,86.0,9.11,48.01
-0.066,0.22275,8.403,12.117,86.0,9.11,48.03
-0.121,0.334125,8.398,12.101,86.0,9.11,48.22
-0.122,0.347,8.403,12.085,86.0,9.11,48.43
-0.119,0.119125,8.407,12.07,86.0,9.11,48.56
-0.113,0.0285,8.411,12.055,86.0,9.11,48.63
-0.113,0.0155,8.411,12.038,86.0,9.11,48.61
-0.071,0.119125,8.41,12.022,86.0,9.11,48.52
-0.045,0.22525,8.41,12.005,86.0,9.11,48.38
-0.123,0.1165,8.408,11.99,86.0,9.11,48.2
-0.064,0.1165,8.407,11.972,89.0,9.11,48.02
0.89,0.215,8.407,11.955,89.0,9.11,47.88
-0.107,0.406625,8.407,11.936,89.0,9.11,47.76
-0.102,0.16575,8.407,11.92,89.0,9.11,47.65
-0.021,0.0155,8.407,11.903,89.0,9.11,47.58
0.146,0.160625,8.407,11.885,89.0,9.11,47.46
0.016,0.246,8.407,11.869,89.0,9.11,47.38
-0.1,0.39625,8.401,11.851,89.0,9.11,47.38
-0.109,0.31075,8.394,11.834,89.0,9.11,47.49
-0.109,0.328875,8.385,11.817,89.0,9.11,47.58
-0.107,0.362625,8.375,11.799,89.0,9.11,47.77
-0.113,0.199375,8.364,11.782,87.0,9.11,48.09
-0.105,0.248625,8.346,11.764,87.0,9.11,48.24
-0.037,0.29525,8.331,11.749,87.0,9.11,48.25
-0.11,0.1165,8.313,11.735,87.0,9.11,48.11
-0.142,0.114,8.294,11.721,87.0,9.11,47.75
0.76,0.196875,8.273,11.708,87.0,9.11,47.38
0.026,0.22525,8.251,11.698,87.0,9.11,47.16
-0.148,0.316,8.232,11.69,87.0,9.11,47.07
-0.106,0.341875,8.214,11.689,87.0,9.11,47.02
0.028,0.19425,8.194,11.69,87.0,9.11,46.95
0.087,0.018125,8.17,11.698,87.0,9.11,46.92
-0.112,0.32625,8.146,11.712,86.0,9.11,46.85
-0.151,0.3885,8.123,11.731,86.0,9.11,46.81
-0.147,0.240875,8.102,11.754,86.0,9.11,46.78
-0.146,0.269375,8.084,11.78,86.0,9.11,46.73
-0.147,0.3315,8.07,11.81,86.0,9.11,46.66
-0.152,0.3755,8.056,11.84,86.0,9.11,46.56
-0.119,0.393625,8.046,11.869,86.0,9.11,46.49
-0.08,0.29,8.038,11.897,86.0,9.11,46.47
-0.161,0.321125,8.033,11.924,86.0,9.11,46.48
-0.162,0.227875,8.032,11.946,86.0,9.11,46.48
0.86,0.1165,8.038,11.963,86.0,9.11,46.46
-0.135,0.261625,8.045,11.978,83.0,9.11,46.45
-0.142,0.35225,8.054,11.989,83.0,9.11,46.48
-0.066,0.114,8.066,11.996,83.0,9.11,46.49
0.103,0.02075,8.078,12.0,83.0,9.11,46.49
0.008,0.32625,8.089,12.0,83.0,9.11,46.47
-0.122,0.391,8.1,11.996,83.0,9.11,46.38
-0.133,0.300375,8.116,11.989,83.0,9.12,46.28
-0.126,0.3315,8.13,11.979,83.0,9.11,46.23
-0.122,0.269375,8.141,11.966,83.0,9.11,46.25
-0.123,0.38075,8.151,11.952,83.0,9.11,46.34
-0.065,0.36,8.157,11.935,83.0,9.11,46.46
-0.081,0.19425,8.16,11.916,80.0,9.12,46.64
-0.136,0.38075,8.161,11.898,80.0,9.12,46.82
0.174,0.36,8.161,11.876,80.0,9.11,47.01
0.617,0.308125,8.16,11.855,80.0,9.11,47.2
-0.119,0.170875,8.16,11.835,80.0,9.11,47.39
-0.09,0.25375,8.162,11.816,80.0,9.12,47.52
0.015,0.02325,8.162,11.796,80.0,9.11,47.63
0.159,0.160625,8.157,11.776,80.0,9.11,47.74
-0.015,0.1165,8.154,11.756,80.0,9.11,47.89
-0.091,0.292625,8.15,11.739,80.0,9.11,47.97
-0.091,0.119125,8.147,11.721,80.0,9.11,47.97
-0.084,0.163125,8.14,11.705,80.0,9.12,47.87
-0.085,0.246,8.131,11.69,81.0,9.11,47.72
-0.089,0.269375,8.124,11.673,81.0,9.11,47.57
-0.043,0.119125,8.118,11.66,81.0,9.11,47.42
-0.027,0.227875,8.105,11.646,81.0,9.11,47.29
-0.103,0.32625,8.093,11.633,81.0,9.11,47.14
0.021,0.3185,8.077,11.619,81.0,9.11,46.98
0.866,0.160625,8.068,11.606,81.0,9.11,46.84
-0.092,0.22275,8.049,11.594,81.0,9.11,46.74
-0.078,0.16575,8.03,11.584,81.0,9.11,46.71
0.004,0.316,8.011,11.571,81.0,9.11,46.66
0.164,0.196875,7.984,11.562,81.0,9.11,46.6
0.02,0.328875,7.949,11.552,81.0,9.11,46.59
-0.082,0.401375,7.909,11.542,76.0,9.11,46.57
-0.09,0.347,7.887,11.532,76.0,9.11,46.57
-0.088,0.199375,7.868,11.522,76.0,9.11,46.58
-0.089,0.163125,7.85,11.514,76.0,9.11,46.58
-0.088,0.19425,7.843,11.504,76.0,9.11,46.54
-0.087,0.119125,7.847,11.497,76.0,9.11,46.46
-0.115,0.36,7.855,11.488,76.0,9.11,46.41
-0.115,0.269375,7.849,11.481,76.0,9.11,46.41
0.295,0.372875,7.84,11.474,76.0,9.11,46.42
0.552,0.261625,7.832,11.465,76.0,9.11,46.43
-0.113,0.1165,7.827,11.457,76.0,9.11,46.43
-0.086,0.1165,7.822,11.45,76.0,9.12,46.44
0.02,0.38325,7.814,11.441,72.0,9.11,46.47
0.151,0.36,7.809,11.435,72.0,9.11,46.47
-0.033,0.3755,7.808,11.427,72.0,9.11,46.49
-0.104,0.362625,7.799,11.415,72.0,9.12,46.53
-0.107,0.362625,7.799,11.414,72.0,9.11,46.53
-0.103,0.372875,7.794,11.406,72.0,9.12,46.46
-0.105,0.300375,7.789,11.4,72.0,9.11,46.36
-0.106,0.02325,7.782,11.393,72.0,9.11,46.27
-0.05,0.041375,7.779,11.387,72.0,9.11,46.21
-0.064,0.0285,7.775,11.379,72.0,9.11,46.15
-0.123,0.114,7.767,11.375,72.0,9.11,46.12
0.209,0.12425,7.758,11.369,72.0,9.11,46.19
0.584,0.04925,7.748,11.362,72.0,9.11,46.33
-0.125,0.054375,7.74,11.357,72.0,9.11,46.37
-0.099,0.385875,7.731,11.349,70.0,9.11,46.35
0.0,0.3445,7.723,11.344,70.0,9.12,46.4
0.136,0.3755,7.711,11.338,70.0,9.11,46.53
-0.043,0.36775,7.706,11.332,70.0,9.12,46.76
-0.121,0.398875,7.706,11.327,70.0,9.11,46.95
-0.121,0.401375,7.707,11.322,70.0,9.12,47.07
-0.118,0.29525,7.701,11.317,70.0,9.12,47.17
-0.119,0.406625,7.695,11.311,70.0,9.12,47.39
-0.1,0.300375,7.69,11.304,70.0,9.11,47.68
-0.048,0.4195,7.685,11.3,70.0,9.12,47.92
-0.129,0.328875,7.678,11.295,70.0,9.12,48.16
-0.165,0.16575,7.673,11.29,70.0,9.12,48.43
0.89,0.305625,7.668,11.285,77.0,9.12,48.64
-0.091,0.347,7.664,11.28,77.0,9.12,48.74
-0.131,0.191625,7.66,11.276,77.0,9.12,48.7
-0.067,0.163125,7.655,11.272,77.0,9.12,48.56
0.086,0.02325,7.652,11.267,77.0,9.12,48.34
0.053,0.02325,7.648,11.262,77.0,9.12,48.05
-0.115,0.1165,7.64,11.257,77.0,9.12,47.8
-0.128,0.1165,7.635,11.252,77.0,9.12,47.61
-0.128,0.163125,7.633,11.247,77.0,9.12,47.47
-0.126,0.256375,7.629,11.245,77.0,9.12,47.34
-0.119,0.1165,7.627,11.24,77.0,9.12,47.2
-0.051,0.119125,7.623,11.235,79.0,9.12,47.08
-0.113,0.196875,7.619,11.23,79.0,9.12,47.0
-0.138,0.1165,7.618,11.225,79.0,9.12,46.95
0.752,0.018125,7.617,11.222,79.0,9.12,46.89
0.059,0.158,7.613,11.217,79.0,9.12,46.83
-0.123,0.160625,7.612,11.214,79.0,9.12,46.75
-0.071,0.3315,7.61,11.21,79.0,9.12,46.67
0.063,0.28225,7.615,11.205,79.0,9.12,46.61
0.119,0.248625,7.614,11.202,79.0,9.12,46.59
-0.065,0.22275,7.608,11.195,79.0,9.12,46.58
-0.1,0.32375,7.608,11.194,79.0,9.12,46.58
-0.098,0.025875,7.605,11.19,79.0,9.12,46.58
-0.094,0.114,7.602,11.187,79.0,9.12,46.58
-0.073,0.292625,7.6,11.184,76.0,9.12,46.59
-0.064,0.372875,7.601,11.182,76.0,9.12,46.59
-0.024,0.38325,7.597,11.179,76.0,9.12,46.6
-0.107,0.27975,7.595,11.177,76.0,9.12,46.6
-0.112,0.328875,7.591,11.175,76.0,9.12,46.57
0.966,0.271875,7.592,11.174,76.0,9.12,46.51
-0.081,0.22525,7.592,11.172,76.0,9.12,46.48
-0.093,0.3315,7.591,11.17,76.0,9.12,46.47
-0.021,0.32625,7.59,11.169,76.0,9.12,46.47
0.142,0.22275,7.59,11.169,76.0,9.12,46.49
0.042,0.0155,7.591,11.168,76.0,9.12,46.5
-0.087,0.22525,7.592,11.167,76.0,9.12,46.5
-0.096,0.303,7.592,11.165,76.0,9.12,46.5
-0.097,0.417,7.596,11.164,76.0,9.11,46.5
-0.094,0.378125,7.596,11.162,76.0,9.12,46.51
-0.094,0.32625,7.597,11.158,76.0,9.12,46.49
-0.061,0.02325,7.599,11.157,76.0,9.12,46.46
-0.03,0.22275,7.602,11.153,76.0,9.12,46.44
-0.113,0.3445,7.603,11.15,76.0,9.12,46.47
-0.088,0.313375,7.604,11.147,76.0,9.12,46.61
0.924,0.03625,7.607,11.143,76.0,9.12,46.77
-0.095,0.370375,7.608,11.138,76.0,9.12,46.96
-0.098,0.316,7.612,11.135,76.0,9.12,47.13
-0.023,0.22275,7.613,11.13,79.0,9.12,47.3
0.136,0.29,7.617,11.126,79.0,9.13,47.49
0.017,0.303,7.617,11.123,79.0,9.12,47.68
-0.104,0.212375,7.617,11.118,79.0,9.12,47.84
-0.115,0.114,7.615,11.113,79.0,9.13,48.03
-0.117,0.305625,7.621,11.109,79.0,9.12,48.12
-0.115,0.35475,7.624,11.105,79.0,9.12,48.13
-0.116,0.02325,7.625,11.099,79.0,9.12,48.1
-0.104,0.341875,7.625,11.096,79.0,9.12,48.05
-0.039,0.292625,7.632,11.091,79.0,9.12,47.91
-0.115,0.114,7.629,11.086,79.0,9.13,47.71
-0.145,0.02325,7.628,11.081,79.0,9.12,47.54
0.838,0.176125,7.629,11.077,83.0,9.12,47.4
-0.037,0.297875,7.632,11.073,83.0,9.13,47.3
-0.131,0.160625,7.629,11.07,83.0,9.13,47.21
-0.083,0.347,7.629,11.066,83.0,9.12,47.11
0.063,0.12175,7.629,11.062,83.0,9.12,47.0
0.082,0.02325,7.632,11.058,83.0,9.12,46.87
-0.105,0.1165,7.633,11.053,83.0,9.12,46.78
-0.129,0.248625,7.628,11.048,83.0,9.12,46.71
-0.13,0.240875,7.594,11.045,83.0,9.12,46.69
-0.129,0.32625,7.58,11.041,83.0,9.13,46.68
-0.13,0.277125,7.576,11.038,83.0,9.13,46.67
-0.131,0.013,7.567,11.034,80.0,9.12,46.65
-0.078,0.284875,7.556,11.03,80.0,9.12,46.65
-0.101,0.27975,7.547,11.026,80.0,9.12,46.66
-0.156,0.292625,7.537,11.024,80.0,9.12,46.65
0.259,0.3445,7.523,11.019,80.0,9.12,46.66
0.476,0.393625,7.516,11.016,80.0,9.12,46.62
-0.161,0.22525,7.506,11.011,80.0,9.12,46.55
-0.131,0.3445,7.494,11.006,80.0,9.12,46.53
-0.022,0.2435,7.501,11.004,80.0,9.12,46.54
0.098,0.26675,7.518,10.999,80.0,9.12,46.56
-0.091,0.1165,7.533,10.996,80.0,9.12,46.55
-0.189,0.0155,7.543,10.991,82.0,9.12,46.54
-0.146,0.336625,7.546,10.988,82.0,9.13,46.54
-0.127,0.341875,7.547,10.984,82.0,9.13,46.56
-0.129,0.269375,7.548,10.981,82.0,9.12,46.55
-0.125,0.372875,7.548,10.978,82.0,9.12,46.52
-0.082,0.26675,7.55,10.974,82.0,9.12,46.46
-0.06,0.114,7.553,10.971,82.0,9.12,46.39
-0.121,0.3185,7.556,10.968,82.0,9.12,46.41
-0.082,0.25125,7.558,10.964,82.0,9.12,46.51
0.935,0.316,7.561,10.96,82.0,9.12,46.62
-0.111,0.385875,7.563,10.958,82.0,9.12,46.76
-0.113,0.163125,7.565,10.954,82.0,9.12,46.89
-0.03,0.2435,7.565,10.949,81.0,9.12,47.04
0.133,0.303,7.563,10.946,81.0,9.12,47.22
0.012,0.347,7.561,10.942,81.0,9.12,47.4
-0.111,0.163125,7.558,10.939,81.0,9.12,47.58
-0.117,0.32375,7.553,10.934,81.0,9.12,47.73
-0.122,0.31075,7.55,10.932,81.0,9.12,47.85
-0.132,0.271875,7.554,10.928,81.0,9.12,47.99
-0.136,0.02075,7.56,10.924,81.0,9.12,48.17
-0.081,0.328875,7.561,10.922,81.0,9.12,48.28
-0.051,0.160625,7.561,10.918,81.0,9.12,48.3
-0.123,0.119125,7.562,10.914,81.0,9.12,48.18
-0.147,0.341875,7.562,10.911,86.0,9.12,48.03
0.876,0.28225,7.562,10.907,86.0,9.12,47.86
-0.033,0.32625,7.562,10.904,86.0,9.12,47.71
-0.133,0.16575,7.562,10.901,86.0,9.11,47.58
-0.075,0.02075,7.569,10.897,86.0,9.12,47.42
0.085,0.02075,7.572,10.894,86.0,9.12,47.23
0.094,0.160625,7.572,10.889,86.0,9.12,47.08
-0.085,0.25375,7.571,10.887,86.0,9.12,47.0
-0.112,0.220125,7.563,10.883,86.0,9.11,46.95
-0.113,0.308125,7.561,10.881,86.0,9.12,46.88
-0.108,0.292625,7.557,10.877,86.0,9.12,46.81
-0.112,0.29,7.553,10.874,82.0,9.11,46.79
-0.104,0.398875,7.551,10.871,82.0,9.12,46.77
-0.031,0.227875,7.552,10.867,82.0,9.11,46.75
-0.082,0.264125,7.548,10.864,82.0,9.12,46.72
-0.119,0.32375,7.547,10.861,82.0,9.12,46.69
0.627,0.3755,7.541,10.857,82.0,9.11,46.62
0.225,0.308125,7.538,10.855,82.0,9.11,46.57
-0.098,0.227875,7.541,10.851,82.0,9.11,46.55
-0.053,0.256375,7.541,10.849,82.0,9.11,46.58
0.077,0.160625,7.54,10.845,82.0,9.11,46.58
0.16,0.321125,7.536,10.841,82.0,9.12,46.58
-0.04,0.1735,7.533,10.839,81.0,9.11,46.59
-0.086,0.3445,7.53,10.835,81.0,9.11,46.61
-0.09,0.41175,7.528,10.832,81.0,9.12,46.64
-0.091,0.168375,7.523,10.83,81.0,9.12,46.64
-0.093,0.269375,7.52,10.826,81.0,9.11,46.64
-0.097,0.22275,7.518,10.822,81.0,9.12,46.58
-0.032,0.033625,7.515,10.82,81.0,9.11,46.49
-0.056,0.316,7.515,10.816,81.0,9.11,46.43
-0.117,0.39625,7.513,10.815,81.0,9.11,46.4
0.222,0.33925,7.512,10.811,81.0,9.11,46.42
0.586,0.391,7.513,10.807,81.0,9.11,46.52
-0.119,0.316,7.513,10.805,81.0,9.12,46.65
-0.091,0.025875,7.511,10.802,79.0,9.12,46.82
0.011,0.297875,7.51,10.799,79.0,9.11,47.03
0.148,0.36775,7.508,10.795,79.0,9.12,47.23
-0.037,0.328875,7.508,10.792,79.0,9.12,47.43
-0.113,0.163125,7.508,10.79,79.0,9.12,47.6
-0.117,0.196875,7.508,10.786,79.0,9.12,47.73
-0.117,0.111375,7.508,10.782,79.0,9.12,47.86
-0.12,0.357375,7.505,10.78,79.0,9.12,48.04
-0.115,0.38325,7.504,10.777,79.0,9.12,48.21
-0.053,0.19425,7.5,10.774,79.0,9.12,48.35
-0.115,0.308125,7.494,10.772,79.0,9.12,48.45
-0.15,0.025875,7.489,10.768,82.0,9.12,48.48
0.63,0.196875,7.486,10.765,82.0,9.12,48.44
0.122,0.292625,7.483,10.763,82.0,9.12,48.27
-0.158,0.02075,7.484,10.76,82.0,9.12,48.07
-0.113,0.0155,7.489,10.758,82.0,9.12,47.88
0.017,0.36775,7.494,10.755,82.0,9.11,47.69
0.092,0.409125,7.502,10.752,82.0,9.12,47.47
-0.105,0.04925,7.508,10.749,82.0,9.12,47.3
-0.147,0.1165,7.508,10.747,82.0,9.11,47.21
-0.146,0.163125,7.506,10.744,82.0,9.12,47.14
-0.14,0.02075,7.501,10.742,82.0,9.12,47.06
-0.138,0.3185,7.496,10.739,82.0,9.12,46.99
-0.128,0.220125,7.489,10.737,79.0,9.12,46.96
-0.054,0.385875,7.484,10.734,79.0,9.12,46.92
-0.126,0.3885,7.48,10.732,79.0,9.11,46.9
-0.156,0.3445,7.48,10.728,79.0,9.11,46.87
0.805,0.111375,7.481,10.725,79.0,9.12,46.81
0.021,0.163125,7.489,10.722,79.0,9.12,46.69
-0.144,0.35475,7.487,10.718,79.0,9.12,46.62
-0.095,0.158,7.486,10.715,79.0,9.12,46.6
0.044,0.347,7.488,10.714,79.0,9.12,46.62
0.092,0.284875,7.49,10.712,79.0,9.12,46.64
-0.1,0.264125,7.49,10.71,79.0,9.12,46.62
-0.133,0.3315,7.49,10.709,79.0,9.12,46.6
-0.134,0.158,7.49,10.707,77.0,9.12,46.6
-0.132,0.0155,7.494,10.707,77.0,9.12,46.61
-0.129,0.264125,7.498,10.707,77.0,9.12,46.64
-0.131,0.32625,7.497,10.707,77.0,9.12,46.62
-0.094,0.2435,7.483,10.707,77.0,9.12,46.6
-0.057,0.305625,7.468,10.707,77.0,9.12,46.51
-0.14,0.347,7.469,10.707,77.0,9.12,46.43
-0.143,0.256375,7.47,10.705,77.0,9.12,46.46
0.941,0.35475,7.467,10.704,77.0,9.12,46.59
-0.108,0.3445,7.46,10.704,77.0,9.12,46.8
-0.113,0.3885,7.455,10.702,77.0,9.12,47.04
-0.039,0.336625,7.441,10.702,77.0,9.12,47.28
0.128,0.220125,7.425,10.699,78.0,9.12,47.54
0.036,0.1165,7.413,10.697,78.0,9.12,47.74
-0.097,0.189,7.399,10.694,78.0,9.12,47.99
-0.107,0.215,7.385,10.693,78.0,9.12,48.33
-0.105,0.018125,7.373,10.689,78.0,9.12,48.65
-0.105,0.163125,7.364,10.688,78.0,9.12,48.87
-0.106,0.163125,7.355,10.686,78.0,9.12,48.96
-0.107,0.284875,7.345,10.682,78.0,9.12,48.88
-0.065,0.163125,7.338,10.681,78.0,9.12,48.71
-0.038,0.215,7.33,10.678,78.0,9.13,48.82
-0.124,0.189,7.325,10.676,78.0,9.13,49.21
-0.084,0.018125,7.32,10.672,86.0,9.12,49.42
0.901,0.02075,7.315,10.67,86.0,9.12,49.58
-0.109,0.02075,7.309,10.667,86.0,9.12,49.62
-0.107,0.1165,7.305,10.665,86.0,9.12,49.67
-0.029,0.3755,7.3,10.662,86.0,9.12,49.61
0.134,0.114,7.295,10.66,86.0,9.12,49.47
0.02,0.02325,7.291,10.656,86.0,9.12,49.33
-0.101,0.303,7.287,10.655,86.0,9.12,49.33
-0.109,0.3885,7.282,10.655,86.0,9.12,49.29
-0.107,0.35475,7.279,10.656,86.0,9.12,49.22
-0.106,0.391,7.275,10.662,86.0,9.12,49.2
-0.108,0.35475,7.272,10.677,83.0,9.12,49.25
-0.109,0.160625,7.265,10.698,83.0,9.12,49.06
-0.064,0.0285,7.262,10.728,83.0,9.12,48.78
-0.037,0.15275,7.266,10.766,83.0,9.12,48.64
-0.116,0.305625,7.279,10.812,83.0,9.12,48.84
-0.04,0.406625,7.288,10.872,83.0,9.12,48.81
0.859,0.378125,7.307,10.94,83.0,9.12,48.42
-0.106,0.357375,7.333,11.011,83.0,9.12,48.28
-0.099,0.370375,7.363,11.087,83.0,9.12,48.37
-0.016,0.256375,7.393,11.17,83.0,9.12,48.41
0.144,0.25125,7.43,11.258,83.0,9.12,48.02
0.016,0.269375,7.469,11.35,85.0,9.12,47.67
-0.096,0.248625,7.516,11.441,85.0,9.12,47.36
-0.101,0.372875,7.563,11.548,85.0,9.12,47.23
-0.095,0.36,7.613,11.664,85.0,9.12,47.15
-0.096,0.316,7.667,11.771,85.0,9.12,46.94
-0.1,0.220125,7.726,11.874,85.0,9.12,46.85
-0.076,0.36775,7.787,11.973,85.0,9.12,47.03
-0.021,0.36775,7.85,12.069,85.0,9.13,47.28
-0.102,0.3185,7.92,12.154,85.0,9.12,47.35
-0.142,0.02075,7.989,12.24,85.0,9.12,47.18
0.923,0.0155,8.055,12.329,87.0,9.12,47.34
-0.06,0.018125,8.12,12.41,87.0,9.12,47.46
-0.095,0.025875,8.181,12.485,87.0,9.12,47.16
-0.03,0.220125,8.243,12.559,87.0,9.12,47.03
0.129,0.36775,8.304,12.641,87.0,9.12,47.27
0.106,0.033625,8.361,12.742,87.0,9.11,47.42
-0.059,0.025875,8.414,12.853,87.0,9.11,47.36
-0.078,0.0285,8.464,12.974,87.0,9.11,47.22
-0.074,0.362625,8.509,13.106,87.0,9.12,47.15
-0.073,0.38075,8.552,13.253,87.0,9.11,47.05
-0.075,0.248625,8.591,13.397,87.0,9.12,47.06
-0.076,0.220125,8.634,13.54,89.0,9.11,47.22
-0.025,0.031125,8.671,13.677,89.0,9.11,47.42
-0.014,0.196875,8.709,13.803,89.0,9.11,47.54
-0.091,0.018125,8.748,13.943,89.0,9.12,47.66
0.05,0.119125,8.788,14.071,89.0,9.11,47.72
0.85,0.160625,8.826,14.212,89.0,9.12,47.77
-0.084,0.22525,8.865,14.308,89.0,9.11,47.82
-0.069,0.300375,8.905,14.396,89.0,9.11,48.0
0.016,0.126875,8.942,14.473,89.0,9.11,48.24
0.174,0.025875,8.979,14.551,94.0,9.11,48.44
0.03,0.025875,9.019,14.634,94.0,9.11,48.53
-0.072,0.02075,9.059,14.705,94.0,9.11,48.58
-0.076,0.1165,9.097,14.773,94.0,9.11,48.6
-0.075,0.033625,9.13,14.805,94.0,9.11,48.59
-0.075,0.0285,9.159,14.819,94.0,9.12,48.46
-0.077,0.160625,9.18,14.827,94.0,9.13,48.28
-0.077,0.22275,9.191,14.827,94.0,9.13,48.16
-0.004,0.25125,9.195,14.834,94.0,9.12,48.09
-0.05,0.1165,9.195,14.845,94.0,9.11,48.01
-0.095,0.02325,9.195,14.855,95.0,9.11,47.91
0.545,0.3885,9.2,14.855,95.0,9.11,47.83
0.335,0.341875,9.216,14.842,95.0,9.11,47.72
-0.096,0.32625,9.224,14.818,95.0,9.11,47.58
-0.06,0.114,9.228,14.79,95.0,9.11,47.49
0.056,0.341875,9.23,14.748,95.0,9.11,47.31
0.162,0.3315,9.229,14.7,95.0,9.11,47.16
-0.028,0.3885,9.226,14.645,95.0,9.11,47.02
-0.084,0.385875,9.219,14.591,95.0,9.11,46.97
-0.088,0.370375,9.206,14.533,95.0,9.11,46.91
-0.089,0.158,9.196,14.475,93.0,9.11,46.85
-0.091,0.248625,9.189,14.414,93.0,9.11,46.79
-0.095,0.349625,9.184,14.35,93.0,9.11,46.76
-0.075,0.3315,9.184,14.284,93.0,9.11,46.72
-0.017,0.292625,9.189,14.219,93.0,9.11,46.71
-0.102,0.163125,9.195,14.151,93.0,9.11,46.64
-0.145,0.0155,9.202,14.08,93.0,9.11,46.56
0.916,0.10875,9.212,14.013,93.0,9.11,46.54
-0.073,0.385875,9.224,13.941,93.0,9.11,46.57
-0.117,0.372875,9.235,13.87,93.0,9.11,46.59
-0.062,0.393625,9.239,13.796,91.0,9.11,46.58
0.094,0.372875,9.232,13.724,91.0,9.12,46.58
0.067,0.199375,9.218,13.659,91.0,9.13,46.61
-0.099,0.25125,9.198,13.595,91.0,9.13,46.62
-0.119,0.341875,9.173,13.536,91.0,9.16,46.64
-0.118,0.32625,9.145,13.48,91.0,9.16,46.61
-0.121,0.3315,9.114,13.429,91.0,9.14,46.55
-0.125,0.32625,9.079,13.38,91.0,9.14,46.55
-0.119,0.313375,9.039,13.337,91.0,9.13,46.56
-0.053,0.264125,8.999,13.297,91.0,9.14,46.58
-0.115,0.19425,8.957,13.258,91.0,9.14,46.55
-0.148,0.264125,8.914,13.224,87.0,9.14,46.55
0.746,0.35225,8.877,13.192,87.0,9.14,46.59
0.008,0.357375,8.837,13.164,87.0,9.14,46.63
-0.145,0.35475,8.798,13.139,87.0,9.14,46.61
-0.094,0.248625,8.755,13.118,87.0,9.18,46.68
0.043,0.199375,8.72,13.1,87.0,9.19,46.69
0.097,0.378125,8.689,13.087,87.0,9.18,46.77
-0.092,0.336625,8.661,13.077,87.0,9.18,46.99
-0.128,0.261625,8.646,13.069,87.0,9.18,47.23
-0.124,0.271875,8.641,13.066,87.0,9.18,47.48
-0.118,0.292625,8.62,13.062,89.0,9.18,47.63
-0.117,0.39625,8.601,13.057,89.0,9.16,47.81
-0.12,0.370375,8.582,13.055,89.0,9.16,48.01
-0.063,0.248625,8.589,13.05,89.0,9.16,48.19
-0.063,0.119125,8.576,13.043,89.0,9.17,48.36
-0.132,0.02075,8.554,13.037,89.0,9.16,48.49
0.132,0.26675,8.532,13.028,89.0,9.16,48.57
0.687,0.031125,8.506,13.017,89.0,9.16,48.57
-0.125,0.22525,8.481,13.005,89.0,9.16,48.49
-0.1,0.018125,8.458,12.99,89.0,9.16,48.31
-0.001,0.025875,8.433,12.976,89.0,9.16,48.08
0.145,0.240875,8.407,12.96,89.0,9.16,47.87
-0.02,0.19425,8.381,12.943,89.0,9.17,47.68
-0.105,0.284875,8.358,12.925,89.0,9.16,47.54
-0.11,0.378125,8.339,12.909,89.0,9.16,47.43
-0.106,0.269375,8.32,12.892,89.0,9.16,47.29
-0.107,0.02325,8.307,12.875,89.0,9.16,47.12
-0.11,0.158,8.297,12.857,89.0,9.16,46.97
-0.085,0.22525,8.284,12.841,89.0,9.16,46.89
-0.031,0.341875,8.273,12.823,89.0,9.16,46.84
-0.115,0.284875,8.264,12.808,89.0,9.16,46.81
-0.153,0.3445,8.257,12.791,89.0,9.17,46.76
0.943,0.119125,8.249,12.774,84.0,9.17,46.73
-0.079,0.401375,8.24,12.756,84.0,9.19,46.73
-0.11,0.155375,8.229,12.74,84.0,9.18,46.71
-0.046,0.341875,8.212,12.723,84.0,9.18,46.7
0.127,0.33925,8.19,12.706,84.0,9.18,46.67
0.061,0.163125,8.162,12.689,84.0,9.18,46.59
-0.098,0.36775,8.128,12.673,84.0,9.18,46.58
-0.113,0.313375,8.109,12.657,84.0,9.18,46.58
-0.112,0.284875,8.094,12.642,84.0,9.18,46.59
-0.113,0.32625,8.091,12.627,84.0,9.18,46.59
-0.121,0.196875,8.108,12.615,84.0,9.18,46.58
-0.12,0.114,8.113,12.6,82.0,9.18,46.6
-0.053,0.38075,8.11,12.586,82.0,9.19,46.63
-0.07,0.2875,8.109,12.572,82.0,9.18,46.64
-0.123,0.163125,8.11,12.557,82.0,9.19,46.65
0.313,0.163125,8.12,12.543,82.0,9.19,46.63
0.49,0.29,8.125,12.53,82.0,9.19,46.57
-0.134,0.341875,8.128,12.513,82.0,9.18,46.54
-0.103,0.38075,8.128,12.5,82.0,9.18,46.6
0.013,0.29,8.11,12.472,82.0,9.18,46.84
-0.04,0.35225,8.108,12.469,82.0,9.18,46.86
-0.066,0.341875,8.096,12.455,82.0,9.18,46.99
-0.137,0.044,8.09,12.438,82.0,9.18,47.16
-0.142,0.36775,8.089,12.423,79.0,9.18,47.32
-0.141,0.370375,8.089,12.408,79.0,9.18,47.55
-0.136,0.38325,8.098,12.393,79.0,9.18,47.74
-0.113,0.22525,8.104,12.377,79.0,9.16,47.87
-0.07,0.227875,8.104,12.363,79.0,9.17,47.97
-0.154,0.163125,8.103,12.346,79.0,9.16,48.04
-0.19,0.269375,8.096,12.331,79.0,9.16,48.07
0.917,0.119125,8.086,12.316,79.0,9.16,48.06
-0.125,0.119125,8.072,12.301,79.0,9.17,47.95
-0.141,0.018125,8.052,12.287,79.0,9.16,47.76
-0.068,0.02325,8.032,12.274,79.0,9.16,47.55
0.097,0.2745,8.011,12.26,83.0,9.16,47.38
0.018,0.189,7.991,12.247,83.0,9.16,47.26
-0.12,0.3445,7.97,12.234,83.0,9.16,47.16
-0.135,0.35475,7.947,12.223,83.0,9.16,47.07
-0.128,0.38075,7.926,12.21,83.0,9.16,46.96
-0.123,0.2435,7.905,12.199,83.0,9.16,46.82
-0.122,0.059625,7.883,12.187,83.0,9.16,46.68
-0.098,0.26675,7.863,12.176,83.0,9.16,46.62
-0.057,0.215,7.846,12.166,83.0,9.16,46.61
-0.142,0.391,7.828,12.156,83.0,9.16,46.61
-0.169,0.158,7.812,12.146,83.0,9.16,46.58
0.998,0.018125,7.796,12.136,81.0,9.16,46.56
-0.118,0.303,7.779,12.128,81.0,9.16,46.57
-0.144,0.227875,7.766,12.118,81.0,9.16,46.58
-0.075,0.246,7.752,12.108,81.0,9.16,46.58
0.093,0.02075,7.74,12.1,81.0,9.16,46.6
0.013,0.292625,7.726,12.091,81.0,9.16,46.54
-0.13,0.2745,7.715,12.081,81.0,9.16,46.46
-0.14,0.35475,7.703,12.071,81.0,9.16,46.43
-0.138,0.215,7.691,12.064,81.0,9.16,46.46
-0.136,0.3445,7.681,12.058,81.0,9.16,46.47
-0.136,0.328875,7.675,12.05,81.0,9.16,46.48
-0.119,0.31075,7.676,12.043,81.0,9.16,46.48
-0.058,0.220125,7.69,12.035,79.0,9.16,46.5
-0.135,0.39625,7.725,12.029,79.0,9.16,46.53
-0.171,0.370375,7.754,12.023,79.0,9.16,46.55
0.923,0.19425,7.771,12.016,79.0,9.16,46.55
-0.07,0.199375,7.78,12.01,79.0,9.16,46.56
-0.14,0.29525,7.79,12.003,79.0,9.16,46.52
-0.087,0.196875,7.796,11.996,79.0,9.16,46.46
0.064,0.370375,7.799,11.988,79.0,9.16,46.45
0.066,0.158,7.803,11.981,79.0,9.16,46.48
-0.106,0.372875,7.802,11.973,79.0,9.16,46.49
-0.127,0.3755,7.799,11.966,79.0,9.16,46.51
-0.123,0.292625,7.798,11.958,80.0,9.16,46.58
-0.122,0.22525,7.798,11.949,80.0,9.16,46.7
-0.116,0.370375,7.798,11.942,80.0,9.16,46.87
-0.116,0.308125,7.797,11.933,80.0,9.16,47.04
-0.071,0.32625,7.794,11.924,80.0,9.16,47.25
-0.046,0.1165,7.793,11.917,80.0,9.16,47.4
-0.124,0.02075,7.791,11.909,80.0,9.16,47.53
-0.039,0.31075,7.787,11.9,80.0,9.16,47.7
0.877,0.38325,7.784,11.891,80.0,9.16,47.91
-0.106,0.29,7.779,11.882,80.0,9.16,48.07
-0.099,0.19425,7.778,11.875,80.0,9.16,48.21
-0.019,0.02075,7.783,11.869,84.0,9.16,48.31
0.137,0.378125,7.789,11.86,84.0,9.16,48.36
0.01,0.119125,7.787,11.852,84.0,9.16,48.32
-0.094,0.018125,7.782,11.844,84.0,9.16,48.21
-0.099,0.264125,7.778,11.836,84.0,9.16,48.17
-0.095,0.03625,7.775,11.828,84.0,9.16,48.04
-0.097,0.114,7.771,11.82,84.0,9.16,47.83
-0.101,0.3315,7.767,11.812,84.0,9.16,47.62
-0.1,0.033625,7.762,11.803,84.0,9.16,47.47
-0.027,0.33925,7.756,11.797,84.0,9.16,47.35
-0.074,0.025875,7.747,11.789,84.0,9.16,47.22
-0.116,0.114,7.741,11.78,85.0,9.16,47.12
0.545,0.401375,7.733,11.774,85.0,9.16,47.04
0.312,0.357375,7.727,11.767,85.0,9.16,46.99
-0.103,0.372875,7.722,11.759,85.0,9.16,46.93
-0.062,0.31075,7.725,11.753,85.0,9.16,46.88
0.054,0.328875,7.726,11.746,85.0,9.16,46.82
0.155,0.199375,7.731,11.738,85.0,9.16,46.73
-0.03,0.341875,7.73,11.731,85.0,9.16,46.67
-0.08,0.170875,7.727,11.725,85.0,9.16,46.66
-0.081,0.25375,7.721,11.72,85.0,9.16,46.67
-0.081,0.189,7.713,11.715,85.0,9.16,46.67
-0.082,0.158,7.705,11.71,84.0,9.16,46.69
-0.084,0.303,7.696,11.706,84.0,9.16,46.69
-0.055,0.3885,7.69,11.704,84.0,9.16,46.71
-0.007,0.372875,7.683,11.706,84.0,9.16,46.71
-0.094,0.1165,7.675,11.707,84.0,9.16,46.73
-0.127,0.02075,7.67,11.712,84.0,9.16,46.7
0.92,0.227875,7.663,11.72,84.0,9.16,46.63
-0.066,0.111375,7.658,11.728,84.0,9.16,46.6
-0.089,0.3755,7.654,11.738,84.0,9.16,46.61
-0.021,0.336625,7.652,11.748,84.0,9.16,46.63
0.136,0.3445,7.652,11.76,84.0,9.16,46.61
0.074,0.292625,7.652,11.77,83.0,9.16,46.58
-0.072,0.36,7.654,11.783,83.0,9.16,46.58
-0.089,0.300375,7.659,11.79,83.0,9.16,46.62
-0.088,0.248625,7.665,11.799,83.0,9.16,46.68
-0.088,0.25125,7.674,11.804,83.0,9.16,46.79
-0.093,0.28225,7.683,11.809,83.0,9.16,46.92
-0.068,0.277125,7.691,11.813,83.0,9.14,47.05
-0.067,0.385875,7.704,11.813,83.0,9.16,47.21
-0.015,0.32625,7.751,11.813,83.0,9.14,47.42
-0.145,0.313375,7.769,11.811,83.0,9.16,47.6
0.912,0.277125,7.787,11.807,83.0,9.16,47.8
-0.081,0.19425,7.803,11.804,84.0,9.16,48.01
-0.107,0.31075,7.819,11.797,84.0,9.16,48.21
-0.037,0.347,7.834,11.79,84.0,9.16,48.42
0.121,0.19425,7.848,11.783,84.0,9.16,48.58
0.059,0.018125,7.858,11.775,84.0,9.16,48.72
-0.091,0.0155,7.866,11.765,84.0,9.16,48.75
-0.106,0.02325,7.874,11.755,84.0,9.16,48.68
-0.103,0.22275,7.879,11.746,84.0,9.16,48.55
-0.103,0.23825,7.883,11.736,84.0,9.16,48.44
-0.101,0.305625,7.885,11.726,84.0,9.16,48.3
-0.032,0.19425,7.884,11.716,84.0,9.16,48.14
-0.096,0.02325,7.883,11.706,86.0,9.16,47.98
-0.127,0.22525,7.881,11.696,86.0,9.16,47.81
0.736,0.119125,7.88,11.686,86.0,9.16,47.65
0.09,0.160625,7.879,11.676,86.0,9.16,47.52
-0.121,0.2175,7.876,11.666,86.0,9.16,47.4
-0.074,0.199375,7.871,11.656,86.0,9.16,47.24
0.057,0.2435,7.866,11.648,86.0,9.16,47.09
0.121,0.3885,7.857,11.639,86.0,9.16,46.99
-0.071,0.0725,7.845,11.629,86.0,9.16,46.93
-0.112,0.248625,7.833,11.621,86.0,9.16,46.91
-0.112,0.163125,7.823,11.613,86.0,9.16,46.87
-0.11,0.32625,7.818,11.604,86.0,9.14,46.83
-0.112,0.39625,7.808,11.596,81.0,9.14,46.81
-0.099,0.385875,7.795,11.588,81.0,9.14,46.81
-0.035,0.385875,7.787,11.58,81.0,9.14,46.8
-0.111,0.29525,7.776,11.573,81.0,9.14,46.8
-0.143,0.018125,7.772,11.564,81.0,9.14,46.77
0.905,0.1165,7.767,11.557,81.0,9.14,46.69
-0.039,0.1165,7.76,11.549,81.0,9.16,46.63
-0.127,0.25125,7.752,11.542,81.0,9.16,46.63
-0.078,0.25375,7.745,11.536,81.0,9.14,46.65
0.07,0.372875,7.741,11.528,81.0,9.14,46.67
0.09,0.3755,7.737,11.522,81.0,9.14,46.67
-0.094,0.1165,7.73,11.514,80.0,9.16,46.68
-0.12,0.35475,7.721,11.508,80.0,9.16,46.68
-0.12,0.269375,7.716,11.501,80.0,9.16,46.69
-0.118,0.316,7.703,11.487,80.0,9.16,46.71
-0.114,0.16575,7.702,11.487,80.0,9.16,46.71
-0.1,0.248625,7.696,11.481,80.0,9.16,46.65
-0.036,0.269375,7.694,11.475,80.0,9.16,46.56
-0.113,0.2305,7.691,11.467,80.0,9.16,46.5
-0.145,0.160625,7.7,11.461,80.0,9.16,46.53
0.88,0.29525,7.713,11.454,80.0,9.16,46.57
-0.039,0.36775,7.723,11.449,80.0,9.16,46.68
-0.121,0.316,7.735,11.444,80.0,9.16,46.8
-0.065,0.313375,7.74,11.436,77.0,9.16,46.97
0.088,0.31075,7.746,11.431,77.0,9.16,47.19
0.101,0.357375,7.746,11.424,77.0,9.16,47.41
-0.082,0.341875,7.745,11.419,77.0,9.16,47.61
-0.107,0.246,7.742,11.413,77.0,9.16,47.83
-0.11,0.3315,7.74,11.406,77.0,9.16,47.97
-0.108,0.284875,7.729,11.401,77.0,9.16,48.12
-0.105,0.362625,7.735,11.395,77.0,9.16,48.33
-0.107,0.163125,7.732,11.389,77.0,9.16,48.56
-0.048,0.1165,7.732,11.384,77.0,9.16,48.73
-0.058,0.22525,7.73,11.379,77.0,9.16,48.82
-0.118,0.025875,7.729,11.374,83.0,9.16,48.87
0.162,0.246,7.725,11.367,83.0,9.16,48.83
0.672,0.385875,7.72,11.362,83.0,9.16,48.66
-0.105,0.16575,7.71,11.357,83.0,9.14,48.43
-0.079,0.196875,7.702,11.352,83.0,9.14,48.24
0.021,0.341875,7.696,11.347,83.0,9.14,47.99
0.169,0.227875,7.694,11.339,83.0,9.14,47.75
-0.009,0.163125,7.69,11.334,83.0,9.14,47.57
-0.094,0.1165,7.684,11.329,83.0,9.14,47.44
-0.1,0.284875,7.664,11.324,83.0,9.14,47.33
-0.099,0.341875,7.655,11.318,83.0,9.14,47.23
-0.1,0.256375,7.648,11.313,83.0,9.14,47.12
-0.104,0.22525,7.638,11.307,80.0,9.16,47.04
-0.107,0.22525,7.633,11.302,80.0,9.14,46.99
-0.068,0.38325,7.628,11.297,80.0,9.14,46.95
-0.042,0.341875,7.624,11.292,80.0,9.14,46.91
-0.123,0.1165,7.622,11.287,80.0,9.16,46.86
-0.09,0.114,7.631,11.282,80.0,9.16,46.77
0.879,0.256375,7.637,11.276,80.0,9.16,46.68
-0.113,0.36775,7.642,11.271,80.0,9.16,46.66
-0.113,0.29,7.644,11.265,80.0,9.16,46.7
-0.029,0.32625,7.644,11.26,80.0,9.16,46.7
0.137,0.22275,7.65,11.255,80.0,9.16,46.69
0.015,0.19425,7.668,11.25,80.0,9.16,46.67
-0.114,0.259,7.674,11.245,80.0,9.16,46.68
-0.125,0.35475,7.679,11.24,80.0,9.16,46.71
-0.124,0.313375,7.683,11.235,80.0,9.16,46.72
-0.122,0.26675,7.684,11.231,80.0,9.16,46.7
-0.124,0.271875,7.684,11.227,80.0,9.16,46.61
-0.124,0.191625,7.681,11.221,80.0,9.16,46.48
-0.064,0.16575,7.673,11.217,80.0,9.16,46.42
-0.088,0.160625,7.661,11.213,80.0,9.16,46.42
-0.139,0.328875,7.653,11.208,80.0,9.16,46.43
0.205,0.02325,7.646,11.203,80.0,9.16,46.47
0.572,0.1165,7.648,11.198,83.0,9.16,46.53
-0.133,0.2175,7.641,11.193,83.0,9.16,46.57
-0.102,0.347,7.634,11.188,83.0,9.16,46.6
0.009,0.35475,7.619,11.183,83.0,9.16,46.61
0.158,0.35475,7.6,11.178,83.0,9.16,46.69
-0.03,0.385875,7.584,11.173,83.0,9.16,46.83
-0.106,0.246,7.571,11.168,83.0,9.16,47.0
-0.108,0.32375,7.558,11.163,83.0,9.16,47.22
-0.106,0.33925,7.553,11.158,83.0,9.16,47.48
-0.103,0.29,7.541,11.153,83.0,9.16,47.74
-0.106,0.2745,7.526,11.149,83.0,9.16,47.98
-0.107,0.284875,7.501,11.145,90.0,9.16,48.19
-0.098,0.32375,7.471,11.139,90.0,9.16,48.42
-0.027,0.32625,7.446,11.135,90.0,9.16,48.63
-0.088,0.227875,7.425,11.13,90.0,9.16,48.83
-0.12,0.2305,7.408,11.126,90.0,9.16,48.92
0.666,0.248625,7.386,11.121,90.0,9.16,48.92
0.195,0.1295,7.369,11.116,90.0,9.16,48.77
-0.116,0.199375,7.352,11.111,90.0,9.16,48.6
-0.071,0.1165,7.353,11.101,90.0,9.16,48.22
0.062,0.163125,7.353,11.1,90.0,9.16,48.2
0.163,0.28225,7.356,11.096,91.0,9.16,48.0
-0.05,0.3445,7.367,11.091,91.0,9.16,47.81
-0.105,0.22525,7.397,11.087,91.0,9.16,47.66
-0.109,0.163125,7.439,11.085,91.0,9.16,47.52
-0.109,0.264125,7.477,11.081,91.0,9.16,47.39
-0.106,0.235625,7.5,11.078,91.0,9.16,47.21
-0.108,0.271875,7.516,11.077,91.0,9.16,47.06
-0.109,0.02075,7.523,11.075,91.0,9.16,46.99
-0.105,0.26675,7.527,11.075,91.0,9.16,46.94
-0.081,0.334125,7.53,11.075,91.0,9.16,46.91
-0.025,0.341875,7.531,11.077,91.0,9.16,46.85
-0.101,0.365125,7.536,11.077,87.0,9.16,46.83
-0.132,0.33925,7.54,11.077,87.0,9.16,46.83
0.833,0.357375,7.546,11.078,87.0,9.16,46.81
-0.085,0.33925,7.552,11.08,87.0,9.16,46.81
-0.086,0.22275,7.559,11.081,87.0,9.16,46.74
-0.042,0.385875,7.567,11.083,87.0,9.16,46.62
0.12,0.349625,7.577,11.087,87.0,9.16,46.47
0.131,0.269375,7.589,11.093,87.0,9.16,46.4
-0.07,0.033625,7.6,11.099,87.0,9.16,46.28
-0.096,0.119125,7.614,11.109,87.0,9.16,45.96
-0.101,0.044,7.628,11.121,85.0,9.16,45.24
-0.1,0.044,7.64,11.133,85.0,9.16,44.82
-0.102,0.033625,7.657,11.146,85.0,9.16,45.12
-0.107,0.02075,7.673,11.163,85.0,9.16,45.47
-0.108,0.0155,7.69,11.178,85.0,9.16,45.55
-0.105,0.031125,7.707,11.19,85.0,9.16,45.45
-0.098,0.284875,7.725,11.205,85.0,9.16,45.65
-0.036,0.35475,7.744,11.216,85.0,9.16,45.93
-0.069,0.303,7.764,11.226,85.0,9.16,46.02
-0.117,0.3445,7.783,11.236,85.0,9.16,46.02
0.408,0.2435,7.803,11.242,85.0,9.16,46.14
0.442,0.22525,7.824,11.247,88.0,9.16,46.31
-0.12,0.17875,7.846,11.251,88.0,9.16,46.51
-0.086,0.25375,7.865,11.254,88.0,9.16,46.88
0.035,0.101,7.885,11.25,88.0,9.16,47.18
0.178,0.176125,7.904,11.253,88.0,9.16,47.62
-0.029,0.271875,7.917,11.26,88.0,9.16,47.45
-0.107,0.305625,7.923,11.264,88.0,9.16,47.94
-0.11,0.631875,7.917,11.261,88.0,9.16,49.06
-0.105,0.3185,7.931,11.251,88.0,9.16,49.69
-0.103,0.158,7.953,11.24,88.0,9.16,50.74
-0.102,0.160625,7.952,11.228,89.0,9.16,51.68
-0.105,0.12425,7.968,11.218,89.0,9.16,52.75
-0.085,0.1865,7.963,11.206,89.0,9.16,53.33
-0.031,0.297875,7.956,11.196,89.0,9.16,53.52
-0.106,0.170875,7.958,11.188,89.0,9.16,53.46
-0.144,0.207125,7.955,11.179,89.0,9.16,53.39
0.932,0.334125,7.946,11.169,89.0,9.16,53.24
-0.066,0.41175,7.927,11.159,89.0,9.16,52.98
-0.111,0.334125,7.905,11.15,89.0,9.16,52.82
-0.047,0.321125,7.886,11.143,89.0,9.17,52.93
0.123,0.261625,7.896,11.135,89.0,9.16,52.78
0.121,0.29525,7.949,11.13,88.0,9.16,52.58
-0.074,0.303,7.972,11.127,88.0,9.16,52.73
-0.098,0.372875,7.98,11.127,88.0,9.16,53.0
-0.097,0.372875,7.977,11.131,88.0,9.16,53.31
-0.094,0.38325,7.981,11.145,88.0,9.16,54.02
-0.092,0.45325,7.986,11.167,88.0,9.18,54.83
-0.093,0.347,7.996,11.205,88.0,9.18,55.61
-0.085,0.398875,8.01,11.354,88.0,9.18,55.29
-0.01,0.316,8.008,11.365,88.0,9.19,55.17
-0.059,0.041375,8.015,11.527,88.0,9.18,54.05
-0.099,0.06475,8.019,11.694,90.0,9.18,53.89
0.533,0.04925,8.004,11.84,90.0,9.18,53.78
0.397,0.305625,8.019,11.992,90.0,9.18,53.02
-0.099,0.362625,8.048,12.162,90.0,9.18,52.34
-0.061,0.357375,8.08,12.315,90.0,9.18,51.74
0.061,0.362625,8.119,12.474,90.0,9.17,51.05
0.197,0.35475,8.17,12.644,90.0,9.17,50.61
-0.012,0.35475,8.232,12.836,90.0,9.17,50.26
-0.083,0.26675,8.3,13.029,90.0,9.16,49.74
-0.087,0.170875,8.375,13.234,90.0,9.17,49.06
-0.084,0.277125,8.464,13.429,90.0,9.17,48.42
-0.084,0.2435,8.556,13.606,90.0,9.18,48.1
-0.083,0.168375,8.649,13.769,90.0,9.18,48.15
-0.084,0.16575,8.743,13.922,90.0,9.18,48.13
-0.074,0.196875,8.832,14.053,90.0,9.17,48.01
-0.005,0.256375,8.921,14.178,90.0,9.17,47.9
-0.067,0.3885,8.999,14.296,90.0,9.16,48.11
-0.098,0.341875,9.073,14.409,90.0,9.17,48.3
0.732,0.378125,9.142,14.519,90.0,9.17,48.37
0.184,0.240875,9.201,14.627,90.0,9.18,48.27
-0.097,0.03625,9.254,14.736,91.0,9.18,48.29
-0.055,0.03625,9.299,14.819,91.0,9.18,48.24
0.078,0.031125,9.346,14.888,91.0,9.19,48.15
0.186,0.038875,9.383,14.955,91.0,9.18,48.07
-0.026,0.041375,9.413,15.005,91.0,9.19,48.23
-0.08,0.031125,9.433,15.053,91.0,9.18,49.14
-0.081,0.235625,9.447,15.108,91.0,9.18,49.79
-0.08,0.341875,9.462,15.158,91.0,9.19,49.67
-0.079,0.220125,9.476,15.182,91.0,9.18,49.23
-0.082,0.25125,9.486,15.189,91.0,9.18,48.96
-0.085,0.32375,9.492,15.191,94.0,9.18,48.96
-0.072,0.357375,9.496,15.191,94.0,9.18,48.89
-0.005,0.3315,9.499,15.19,94.0,9.17,48.77
-0.081,0.357375,9.499,15.187,94.0,9.17,48.64
-0.111,0.256375,9.499,15.164,94.0,9.17,48.35
0.886,0.2875,9.499,15.133,94.0,9.17,48.04
0.005,0.357375,9.497,15.093,94.0,9.17,47.79
-0.103,0.139875,9.492,15.046,94.0,9.18,47.58
-0.053,0.2305,9.488,15.004,94.0,9.17,47.35
0.094,0.25375,9.481,14.96,94.0,9.17,47.16
0.144,0.126875,9.471,14.907,91.0,9.17,47.0
-0.063,0.2305,9.46,14.853,91.0,9.17,46.84
-0.101,0.168375,9.45,14.803,91.0,9.17,46.78
-0.104,0.119125,9.44,14.756,91.0,9.16,46.74
-0.101,0.041375,9.428,14.708,91.0,9.17,46.85
-0.102,0.119125,9.415,14.661,91.0,9.17,46.99
-0.108,0.297875,9.397,14.612,91.0,9.16,46.96
-0.107,0.170875,9.379,14.557,91.0,9.17,46.91
-0.056,0.29525,9.359,14.502,91.0,9.17,46.88
-0.064,0.33925,9.341,14.45,91.0,9.17,46.88
-0.124,0.033625,9.321,14.401,93.0,9.17,46.92
0.171,0.25125,9.297,14.341,93.0,9.17,46.87
0.64,0.39625,9.276,14.289,93.0,9.17,46.87
-0.13,0.349625,9.253,14.232,93.0,9.17,46.83
-0.104,0.168375,9.229,14.171,93.0,9.17,46.84
-0.002,0.160625,9.201,14.11,93.0,9.17,46.78
0.16,0.2745,9.175,14.05,93.0,9.17,46.77
-0.021,0.372875,9.148,13.991,93.0,9.17,46.83
-0.119,0.316,9.118,13.932,93.0,9.17,46.98
-0.124,0.12425,9.088,13.875,93.0,9.17,47.08
-0.119,0.033625,9.056,13.82,93.0,9.17,47.16
-0.116,0.199375,9.026,13.763,93.0,9.17,47.19
-0.119,0.22525,8.995,13.708,93.0,9.17,47.26
-0.095,0.22525,8.965,13.655,93.0,9.17,47.48
-0.04,0.35475,8.935,13.601,93.0,9.17,47.77
-0.118,0.22275,8.903,13.549,93.0,9.17,48.02
-0.156,0.25375,8.87,13.498,93.0,9.17,48.29
0.935,0.303,8.805,13.403,93.0,9.17,48.68
-0.069,0.2305,8.801,13.398,93.0,9.17,48.7
-0.109,0.248625,8.771,13.355,93.0,9.17,48.82
-0.047,0.16575,8.739,13.313,94.0,9.17,48.85
0.121,0.321125,8.708,13.273,94.0,9.18,48.78
0.105,0.25125,8.675,13.236,94.0,9.17,48.63
-0.08,0.207125,8.646,13.202,94.0,9.17,48.43
-0.102,0.163125,8.616,13.172,94.0,9.18,48.24
-0.1,0.202,8.587,13.143,94.0,9.18,48.03
-0.1,0.246,8.559,13.11,94.0,9.18,47.9
-0.099,0.29,8.53,13.08,94.0,9.18,47.82
-0.1,0.3755,8.501,13.056,94.0,9.18,47.78
-0.081,0.25375,8.474,13.031,94.0,9.18,47.68
-0.015,0.269375,8.448,13.005,94.0,9.18,47.62
-0.088,0.39625,8.421,12.983,94.0,9.18,47.59
-0.123,0.31075,8.396,12.958,94.0,9.18,47.57
0.938,0.36,8.373,12.934,94.0,9.18,47.54
-0.022,0.36,8.349,12.913,94.0,9.17,47.51
-0.097,0.163125,8.325,12.889,94.0,9.17,47.41
-0.042,0.256375,8.303,12.868,94.0,9.18,47.33
0.113,0.25375,8.282,12.845,94.0,9.18,47.3
0.143,0.119125,8.262,12.822,94.0,9.18,47.27
-0.056,0.16575,8.247,12.802,94.0,9.18,47.24
-0.086,0.277125,8.234,12.783,93.0,9.18,47.22
-0.084,0.25375,8.218,12.763,93.0,9.18,47.23
-0.087,0.22525,8.211,12.74,93.0,9.18,47.24
-0.087,0.292625,8.196,12.72,93.0,9.18,47.23
-0.09,0.2745,8.182,12.701,93.0,9.18,47.19
-0.06,0.199375,8.167,12.681,93.0,9.18,47.12
-0.016,0.38325,8.155,12.661,93.0,9.18,47.09
-0.099,0.26675,8.141,12.642,93.0,9.18,47.12
-0.12,0.277125,8.129,12.623,93.0,9.18,47.15
0.968,0.163125,8.116,12.606,93.0,9.18,47.22
-0.072,0.2305,8.105,12.589,94.0,9.18,47.28
-0.088,0.3445,8.089,12.571,94.0,9.18,47.37
-0.017,0.370375,8.075,12.555,94.0,9.17,47.49
0.158,0.202,8.061,12.539,94.0,9.17,47.67
0.083,0.22525,8.048,12.523,94.0,9.17,47.89
-0.074,0.16575,8.035,12.508,94.0,9.17,48.04
-0.089,0.16575,8.023,12.494,94.0,9.17,48.24
-0.091,0.292625,8.017,12.48,94.0,9.17,48.43
-0.092,0.38075,8.017,12.465,94.0,9.17,48.6
-0.092,0.25375,8.004,12.453,94.0,9.17,48.73
-0.096,0.2875,7.992,12.439,96.0,9.18,48.83
-0.046,0.2305,7.976,12.428,96.0,9.18,48.9
-0.045,0.22525,7.96,12.417,96.0,9.18,48.84
-0.116,0.248625,7.947,12.407,96.0,9.18,48.7
0.095,0.168375,7.941,12.394,96.0,9.18,48.45
0.726,0.29525,7.94,12.384,96.0,9.18,48.2
-0.118,0.044,7.937,12.372,96.0,9.18,48.01
-0.101,0.168375,7.93,12.362,96.0,9.18,47.89
-0.004,0.25125,7.921,12.352,96.0,9.18,47.77
0.157,0.2305,7.914,12.342,94.0,9.17,47.64
-0.011,0.341875,7.906,12.332,94.0,9.17,47.53
-0.114,0.308125,7.899,12.32,94.0,9.17,47.49
-0.121,0.27975,7.89,12.31,94.0,9.17,47.42
-0.116,0.316,7.884,12.3,94.0,9.17,47.38
-0.116,0.2305,7.876,12.289,94.0,9.18,47.28
-0.121,0.119125,7.871,12.279,94.0,9.18,47.17
-0.07,0.271875,7.866,12.267,94.0,9.18,47.11
-0.081,0.2745,7.86,12.255,94.0,9.18,47.08
-0.143,0.27975,7.854,12.245,94.0,9.17,47.05
0.106,0.277125,7.849,12.235,95.0,9.17,47.01
0.659,0.328875,7.843,12.225,95.0,9.17,46.98
-0.144,0.362625,7.837,12.215,95.0,9.17,46.96
-0.118,0.158,7.832,12.203,95.0,9.18,46.94
-0.014,0.259,7.827,12.193,95.0,9.18,46.94
0.149,0.334125,7.822,12.183,95.0,9.18,46.85
-0.026,0.3315,7.817,12.173,95.0,9.18,46.79
-0.122,0.25375,7.812,12.163,95.0,9.18,46.76
-0.126,0.38325,7.807,12.153,95.0,9.18,46.72
-0.125,0.069875,7.802,12.143,95.0,9.18,46.65
-0.124,0.204625,7.798,12.133,94.0,9.18,46.66
-0.125,0.357375,7.794,12.123,94.0,9.18,46.71
-0.113,0.297875,7.789,12.113,94.0,9.18,46.78
-0.041,0.25125,7.784,12.105,94.0,9.17,46.84
-0.112,0.227875,7.781,12.096,94.0,9.17,46.9
-0.141,0.202,7.777,12.089,94.0,9.17,46.92
0.814,0.29525,7.772,12.081,94.0,9.17,47.01
0.032,0.32625,7.77,12.071,94.0,9.17,47.19
-0.133,0.227875,7.765,12.064,94.0,9.17,47.41
-0.086,0.227875,7.761,12.056,94.0,9.17,47.64
0.058,0.284875,7.757,12.049,95.0,9.18,47.84
0.128,0.406625,7.755,12.04,95.0,9.18,48.05
-0.08,0.313375,7.751,12.033,95.0,9.18,48.21
-0.117,0.12425,7.747,12.025,95.0,9.18,48.27
-0.119,0.119125,7.742,12.018,95.0,9.18,48.22
-0.118,0.3755,7.74,12.01,95.0,9.18,48.03
-0.115,0.163125,7.736,12.002,95.0,9.17,47.84
-0.114,0.2745,7.732,11.994,95.0,9.17,47.68
-0.092,0.2745,7.73,11.987,95.0,9.17,47.57
-0.037,0.2745,7.727,11.979,95.0,9.18,47.43
-0.117,0.163125,7.724,11.972,93.0,9.18,47.32
-0.154,0.362625,7.722,11.963,93.0,9.18,47.24
0.926,0.204625,7.719,11.956,93.0,9.17,47.18
-0.073,0.248625,7.716,11.947,93.0,9.17,47.09
-0.123,0.12175,7.714,11.939,93.0,9.17,47.02
-0.062,0.22525,7.711,11.932,93.0,9.17,46.91
0.104,0.31075,7.709,11.922,93.0,9.17,46.84
0.095,0.300375,7.705,11.915,93.0,9.17,46.83
-0.092,0.25375,7.704,11.906,93.0,9.17,46.83
-0.114,0.277125,7.7,11.899,93.0,9.17,46.83
-0.116,0.25375,7.697,11.89,90.0,9.17,46.81
-0.118,0.305625,7.694,11.882,90.0,9.16,46.8
-0.115,0.313375,7.692,11.875,90.0,9.17,46.78
-0.117,0.308125,7.689,11.866,90.0,9.16,46.77
-0.114,0.3445,7.687,11.86,90.0,9.17,46.73
-0.046,0.341875,7.685,11.851,90.0,9.17,46.67
-0.099,0.305625,7.683,11.842,90.0,9.16,46.66
-0.141,0.126875,7.68,11.835,90.0,9.16,46.79
0.518,0.277125,7.678,11.828,90.0,9.16,46.99
0.274,0.1295,7.675,11.82,90.0,9.16,47.28
-0.146,0.158,7.674,11.814,90.0,9.16,47.65
-0.111,0.35475,7.67,11.809,90.0,9.16,47.92
0.015,0.365125,7.669,11.804,90.0,9.17,48.25
0.139,0.32625,7.667,11.802,90.0,9.16,48.79
-0.068,0.202,7.664,11.795,90.0,9.16,48.59
-0.134,0.38075,7.664,11.789,90.0,9.16,48.03
-0.136,0.259,7.66,11.774,90.0,9.16,47.59
-0.132,0.277125,7.658,11.737,90.0,9.16,47.28
-0.131,0.168375,7.655,11.666,90.0,9.17,47.14
-0.135,0.32625,7.654,11.601,90.0,9.16,46.95
-0.112,0.29525,7.652,11.57,90.0,9.17,46.83
-0.064,0.292625,7.648,11.556,90.0,9.17,46.8
-0.137,0.1735,7.643,11.553,90.0,9.17,46.83
-0.176,0.168375,7.635,11.563,90.0,9.17,46.73
0.898,0.32625,7.629,11.568,90.0,9.17,46.64
-0.098,0.199375,7.623,11.566,90.0,9.17,46.58
-0.134,0.22275,7.618,11.556,90.0,9.17,46.46
-0.068,0.29525,7.617,11.518,90.0,9.17,46.32
0.104,0.233125,7.617,11.516,90.0,9.17,46.31
0.09,0.31075,7.614,11.464,90.0,9.17,46.26
-0.095,0.25125,7.612,11.399,90.0,9.17,46.18
-0.114,0.038875,7.61,11.336,90.0,9.17,46.09
-0.114,0.246,7.609,11.27,90.0,9.17,46.02
-0.112,0.27975,7.609,11.213,90.0,9.16,45.89
-0.11,0.357375,7.609,11.163,90.0,9.17,45.78
-0.11,0.303,7.609,11.124,90.0,9.17,45.62
-0.102,0.372875,7.614,11.086,90.0,9.17,45.47
-0.03,0.292625,7.628,11.041,90.0,9.17,45.35
-0.074,0.199375,7.638,10.989,90.0,9.17,45.32
-0.114,0.297875,7.642,10.94,90.0,9.17,45.32
0.486,0.191625,7.639,10.897,90.0,9.17,45.32
0.402,0.401375,7.639,10.853,88.0,9.17,45.33
-0.111,0.39625,7.638,10.83,88.0,9.17,45.49
-0.072,0.2435,7.638,10.869,88.0,9.16,45.73
0.05,0.25125,7.639,11.046,88.0,9.16,46.01
0.193,0.29525,7.637,11.239,88.0,9.16,46.34
-0.017,0.35225,7.633,11.34,88.0,9.16,46.65
-0.09,0.297875,7.632,11.415,88.0,9.16,46.88
-0.094,0.347,7.632,11.469,88.0,9.16,47.09
-0.095,0.31075,7.632,11.505,88.0,9.16,47.32
-0.096,0.220125,7.632,11.509,88.0,9.16,47.55
-0.098,0.321125,7.629,11.501,88.0,9.16,47.78
-0.1,0.220125,7.63,11.498,88.0,9.16,48.03
-0.077,0.36775,7.632,11.493,88.0,9.16,48.29
-0.023,0.256375,7.635,11.488,88.0,9.16,48.55
-0.1,0.3885,7.637,11.486,88.0,9.16,48.72
-0.133,0.277125,7.64,11.479,88.0,9.16,48.78
0.923,0.308125,7.645,11.475,88.0,9.16,48.78
-0.047,0.246,7.65,11.474,88.0,9.16,48.7
-0.116,0.328875,7.654,11.479,88.0,9.16,48.51
-0.062,0.300375,7.658,11.483,88.0,9.16,48.3
0.097,0.31075,7.66,11.479,88.0,9.16,48.07
0.124,0.22525,7.664,11.47,91.0,9.16,47.89
-0.085,0.29,7.665,11.461,91.0,9.16,47.73
-0.119,0.16575,7.669,11.458,91.0,9.16,47.58
-0.125,0.191625,7.67,11.454,91.0,9.16,47.5
-0.126,0.26675,7.674,11.449,91.0,9.16,47.44
-0.127,0.25375,7.674,11.444,91.0,9.16,47.33
-0.132,0.227875,7.677,11.436,91.0,9.16,47.27
-0.131,0.246,7.677,11.435,91.0,9.16,47.24
-0.078,0.33925,7.678,11.423,91.0,9.16,47.2
-0.076,0.391,7.677,11.391,91.0,9.16,47.19
-0.143,0.29,7.677,11.364,91.0,9.16,47.14
0.054,0.02325,7.677,11.333,87.0,9.16,47.14
0.726,0.03625,7.677,11.314,87.0,9.16,47.11
-0.137,0.25375,7.675,11.315,87.0,9.16,47.07
-0.119,0.36,7.674,11.329,87.0,9.16,47.0
-0.026,0.25125,7.674,11.344,87.0,9.16,46.91
0.15,0.3315,7.673,11.363,87.0,9.17,46.79
-0.016,0.27975,7.67,11.379,87.0,9.17,46.7
-0.134,0.27975,7.669,11.378,87.0,9.16,46.65
-0.142,0.25375,7.667,11.367,87.0,9.16,46.6
-0.141,0.2305,7.664,11.344,87.0,9.16,46.54
-0.141,0.2305,7.664,11.33,87.0,9.17,46.49
-0.143,0.313375,7.664,11.322,84.0,9.16,46.45
-0.092,0.25125,7.662,11.318,84.0,9.16,46.39
-0.095,0.2875,7.662,11.314,84.0,9.16,46.34
-0.156,0.336625,7.662,11.309,84.0,9.16,46.31
0.03,0.2745,7.664,11.304,84.0,9.16,46.29
0.784,0.031125,7.664,11.296,84.0,9.16,46.28
-0.135,0.313375,7.668,11.281,84.0,9.16,46.45
-0.114,0.362625,7.67,11.289,84.0,9.16,46.64
-0.017,0.119125,7.674,11.317,84.0,9.16,46.84
0.16,0.119125,7.678,11.378,84.0,9.16,47.02
-0.004,0.163125,7.683,11.444,84.0,9.16,47.26
-0.113,0.259,7.687,11.494,84.0,9.16,47.49
-0.122,0.328875,7.692,11.539,84.0,9.16,47.76
-0.118,0.196875,7.703,11.614,84.0,9.16,48.36
-0.115,0.313375,7.705,11.62,84.0,9.16,48.4
-0.113,0.313375,7.71,11.68,84.0,9.16,48.65
-0.09,0.347,7.715,11.748,84.0,9.16,48.9
-0.037,0.256375,7.719,11.789,84.0,9.16,49.15
-0.123,0.32375,7.722,11.806,84.0,9.16,49.36
-0.165,0.349625,7.725,11.799,84.0,9.16,49.5
1.003,0.207125,7.727,11.787,84.0,9.16,49.5
-0.075,0.22275,7.731,11.825,84.0,9.16,49.33
-0.126,0.199375,7.732,11.853,84.0,9.16,49.09
-0.068,0.2745,7.734,11.853,84.0,9.16,48.84
0.1,0.3185,7.734,11.845,84.0,9.16,48.56
0.096,0.22275,7.736,11.854,84.0,9.16,48.35
-0.096,0.25125,7.736,11.855,84.0,9.16,48.09
-0.116,0.248625,7.736,11.841,84.0,9.16,47.87
-0.117,0.246,7.735,11.788,84.0,9.16,47.69
-0.114,0.19425,7.734,11.783,84.0,9.16,47.55
-0.111,0.3185,7.732,11.799,84.0,9.16,47.43
-0.102,0.316,7.731,11.794,84.0,9.16,47.33
-0.031,0.233125,7.729,11.793,84.0,9.16,47.24
-0.101,0.204625,7.727,11.796,84.0,9.16,47.15
-0.13,0.29525,7.725,11.803,84.0,9.16,47.04
0.782,0.372875,7.72,11.796,84.0,9.16,46.87
0.069,0.25375,7.721,11.792,84.0,9.16,46.87
-0.111,0.25125,7.719,11.778,84.0,9.16,46.73
-0.064,0.36775,7.715,11.765,84.0,9.16,46.6
0.078,0.28225,7.712,11.757,84.0,9.16,46.51
0.159,0.259,7.709,11.748,84.0,9.16,46.49
-0.05,0.26675,7.705,11.758,84.0,9.16,46.4
-0.091,0.256375,7.702,11.763,84.0,9.16,46.32
-0.09,0.32625,7.697,11.747,84.0,9.16,46.31
-0.09,1.39325,7.69,11.73,84.0,9.16,46.3
-0.088,0.227875,7.685,11.695,84.0,9.16,46.35
-0.066,0.163125,7.68,11.645,84.0,9.16,46.47
-0.008,0.29,7.664,11.583,84.0,9.16,46.66
-0.091,0.155375,7.675,11.58,84.0,9.16,46.84
-0.123,0.090625,7.685,11.593,84.0,9.16,47.06
0.927,0.04925,7.679,11.609,84.0,9.16,47.35
-0.038,0.054375,7.675,11.64,84.0,9.16,47.67
-0.081,0.038875,7.673,11.665,84.0,9.16,47.95
-0.017,0.168375,7.669,11.669,84.0,9.16,48.22
0.145,0.119125,7.668,11.687,86.0,9.16,48.5
0.131,0.196875,7.664,11.704,86.0,9.16,48.78
-0.051,0.2875,7.663,11.724,86.0,9.16,49.03
-0.074,0.207125,7.66,11.743,86.0,9.16,49.24
-0.073,0.3445,7.659,11.767,86.0,9.16,49.35
-0.08,0.2745,7.657,11.795,86.0,9.16,49.24
-0.089,0.297875,7.655,11.825,86.0,9.16,48.97
-0.029,0.3445,7.654,11.855,86.0,9.16,48.75
-0.064,0.370375,7.654,11.885,86.0,9.16,48.58
-0.121,0.313375,7.654,11.915,86.0,9.16,48.35
0.33,0.25375,7.658,11.942,86.0,9.16,48.12
0.49,0.2745,7.66,11.967,87.0,9.16,47.9
-0.131,0.316,7.665,11.99,87.0,9.16,47.69
-0.101,0.334125,7.67,12.009,87.0,9.16,47.57
0.005,0.196875,7.675,12.028,87.0,9.16,47.54
0.141,0.199375,7.68,12.039,87.0,9.16,47.49
-0.059,0.03625,7.687,12.041,87.0,9.16,47.35
-0.136,0.114,7.692,12.026,87.0,9.16,47.26
-0.137,0.316,7.701,12.02,87.0,9.16,47.22
-0.134,0.391,7.707,12.013,87.0,9.16,47.2
-0.122,0.28225,7.713,11.998,87.0,9.16,47.16
-0.063,0.25125,7.72,11.972,87.0,9.16,47.1
-0.146,0.341875,7.725,11.907,85.0,9.16,47.05
-0.181,0.36,7.73,11.856,85.0,9.16,47.0
0.802,0.277125,7.735,11.835,85.0,9.16,46.98
-0.087,0.32375,7.74,11.798,85.0,9.16,47.07
-0.182,0.3885,7.742,11.75,85.0,9.16,47.1
-0.13,0.235625,7.746,11.676,85.0,9.16,47.12
0.017,0.35225,7.749,11.583,85.0,9.16,47.09
0.053,0.393625,7.751,11.508,85.0,9.16,47.06
-0.139,0.29525,7.751,11.439,85.0,9.16,47.04
-0.168,0.297875,7.751,11.371,85.0,9.16,47.06
-0.161,0.16575,7.754,11.291,87.0,9.16,47.03
-0.157,0.313375,7.754,11.238,87.0,9.16,47.04
-0.117,0.25375,7.754,11.214,87.0,9.16,47.07
-0.093,0.3315,7.754,11.198,87.0,9.16,47.05
-0.177,0.248625,7.751,11.188,87.0,9.16,47.03
-0.117,0.328875,7.751,11.169,87.0,9.16,46.92
0.875,0.31075,7.75,11.152,87.0,9.16,46.8
-0.16,0.385875,7.747,11.134,87.0,9.16,46.59
-0.154,0.31075,7.745,11.117,87.0,9.16,46.38
-0.067,0.28225,7.741,11.096,87.0,9.16,46.21
0.102,0.168375,7.739,11.072,87.0,9.16,46.08
-0.017,0.22275,7.736,11.05,86.0,9.16,46.0
-0.134,0.3755,7.735,11.03,86.0,9.16,46.08
-0.138,0.3885,7.731,11.008,86.0,9.16,46.37
-0.133,0.199375,7.726,10.986,86.0,9.16,46.64
-0.13,0.316,7.721,10.958,86.0,9.16,46.86
-0.074,0.2745,7.713,10.921,86.0,9.16,47.02
-0.076,0.2305,7.707,10.888,86.0,9.16,47.22
-0.146,0.271875,7.709,10.858,86.0,9.16,47.56
0.063,0.32625,7.703,10.836,86.0,9.16,47.94
0.765,0.199375,7.697,10.821,86.0,9.16,48.27
-0.134,0.168375,7.697,10.797,86.0,9.16,48.57
-0.113,0.3315,7.7,10.778,87.0,9.16,48.84
-0.018,0.038875,7.701,10.767,87.0,9.16,49.07
0.14,0.25125,7.706,10.748,87.0,9.16,49.26
-0.021,0.25375,7.704,10.724,87.0,9.16,49.38
-0.114,0.25125,7.704,10.689,87.0,9.16,49.46
-0.115,0.227875,7.704,10.647,87.0,9.16,49.47
-0.112,0.16575,7.704,10.611,87.0,9.16,49.37
-0.11,0.22275,7.706,10.632,87.0,9.16,49.23
-0.072,0.349625,7.71,10.667,87.0,9.14,49.02
-0.039,0.256375,7.712,10.668,87.0,9.13,48.79
-0.124,0.233125,7.717,10.648,90.0,9.1,48.59
-0.115,0.199375,7.722,10.627,90.0,9.08,48.42
0.949,0.316,7.725,10.617,90.0,9.05,48.22
-0.093,0.2305,7.73,10.601,90.0,9.07,48.04
-0.097,0.277125,7.737,10.588,90.0,9.07,47.88
-0.021,0.341875,7.756,10.58,90.0,9.07,47.72
0.149,0.362625,7.765,10.596,90.0,9.07,47.59
0.051,0.36,7.771,10.599,90.0,9.07,47.54
-0.08,0.04925,7.779,10.583,90.0,9.07,47.48
-0.088,0.269375,7.775,10.561,90.0,9.06,47.45
-0.088,0.370375,7.778,10.538,90.0,9.07,47.38
-0.089,0.29525,7.798,10.515,86.0,9.07,47.34
-0.088,0.3445,7.814,10.496,86.0,9.06,47.3
-0.024,0.212375,7.814,10.477,86.0,9.07,47.25
-0.063,0.196875,7.802,10.457,86.0,9.06,47.19
-0.115,0.378125,7.807,10.433,86.0,9.07,47.12
0.354,0.370375,7.829,10.427,86.0,9.07,47.01
0.495,0.220125,7.836,10.428,86.0,9.07,46.96
-0.115,0.191625,7.83,10.442,86.0,9.06,46.88
-0.086,0.39625,7.826,10.452,86.0,9.07,46.86
0.019,0.308125,7.833,10.472,86.0,9.06,46.88
0.153,0.12175,7.85,10.504,86.0,9.06,47.0
-0.039,0.155375,7.844,10.53,86.0,9.07,47.21
-0.108,0.54125,7.825,10.539,86.0,9.07,47.5
-0.108,1.92675,7.874,10.609,86.0,9.07,48.01
-0.109,0.31075,7.877,10.615,86.0,9.07,48.04
-0.111,0.28225,7.894,10.663,86.0,9.06,48.25
-0.09,0.22525,7.905,10.692,86.0,9.07,48.47
-0.042,0.264125,7.915,10.678,86.0,9.07,48.73
-0.125,0.15275,7.945,10.696,86.0,9.07,49.01
-0.162,0.069875,7.981,10.695,86.0,9.06,49.28
0.906,0.054375,8.012,10.695,86.0,9.07,49.5
-0.096,0.033625,8.038,10.673,85.0,9.07,49.73
-0.132,0.03625,8.06,10.652,85.0,9.07,49.92
-0.071,0.0285,8.085,10.641,85.0,9.06,50.01
0.09,0.365125,8.11,10.628,85.0,9.07,49.98
0.058,0.12425,8.144,10.612,85.0,9.07,49.8
-0.112,0.163125,8.174,10.592,85.0,9.06,49.48
-0.129,0.2305,8.196,10.585,85.0,9.07,49.16
-0.126,0.31075,8.218,10.579,85.0,9.06,48.93
-0.123,0.336625,8.234,10.578,85.0,9.07,48.7
-0.12,0.22525,8.249,10.575,85.0,9.06,48.5
-0.054,0.271875,8.267,10.566,85.0,9.06,48.33
-0.108,0.16575,8.283,10.535,86.0,9.06,48.21
-0.143,0.095875,8.29,10.494,86.0,9.07,48.07
0.518,0.145,8.292,10.469,86.0,9.07,47.98
0.268,0.22275,8.278,10.469,86.0,9.07,47.89
-0.138,0.65525,8.29,10.484,86.0,9.07,47.8
-0.093,0.55675,8.298,10.477,86.0,9.06,47.67
0.03,0.23825,8.299,10.46,86.0,9.06,47.59
0.137,0.246,8.301,10.446,86.0,9.06,47.51
-0.057,1.42175,8.294,10.433,86.0,9.06,47.44
-0.109,1.279375,8.284,10.415,86.0,9.07,47.35
-0.109,0.1865,8.273,10.415,86.0,9.06,47.26
-0.107,0.2875,8.27,10.417,84.0,9.07,47.2
-0.108,0.25375,8.261,10.408,84.0,9.07,47.14
-0.111,0.259,8.26,10.389,84.0,9.06,47.1
-0.056,0.22275,8.246,10.356,84.0,9.06,47.04
-0.061,0.22525,8.233,10.335,84.0,9.06,46.98
-0.131,0.246,8.219,10.317,84.0,9.06,46.87
0.082,0.111375,8.207,10.29,84.0,9.06,46.82
0.752,0.393625,8.189,10.259,84.0,9.06,46.9
-0.126,1.768875,8.163,10.231,84.0,9.06,47.06
-0.106,0.313375,8.143,10.232,84.0,9.06,47.23
-0.012,0.215,8.147,10.231,84.0,9.06,47.47
0.15,0.196875,8.136,10.194,83.0,9.06,47.71
-0.009,0.25125,8.125,10.132,83.0,9.06,47.96
-0.11,0.106125,8.119,10.105,83.0,9.06,48.22
-0.115,0.067375,8.104,10.057,83.0,9.06,48.48
-0.114,0.046625,8.09,10.037,83.0,9.06,48.78
-0.113,0.038875,8.079,10.028,83.0,9.06,48.98
-0.116,0.227875,8.066,10.018,83.0,9.06,49.23
-0.114,0.25375,8.055,10.019,83.0,9.07,49.43
-0.039,0.119125,8.044,10.013,83.0,9.06,49.62
-0.091,0.248625,8.033,10.008,83.0,9.06,49.76
-0.128,0.264125,8.022,10.0,83.0,9.06,49.81
0.532,0.328875,8.013,9.99,87.0,9.06,49.75
0.304,0.334125,8.004,9.981,87.0,9.06,49.59
-0.122,0.204625,7.994,9.971,87.0,9.07,49.36
-0.081,0.3445,7.986,9.958,87.0,9.06,49.13
0.039,0.271875,7.978,9.948,87.0,9.06,48.89
0.159,0.277125,7.969,9.937,87.0,9.06,48.59
-0.042,0.227875,7.962,9.926,87.0,9.06,48.37
-0.102,0.5905,7.954,9.913,87.0,9.06,48.21
-0.102,1.414,7.946,9.9,87.0,9.06,48.07
-0.101,0.233125,7.939,9.89,87.0,9.06,47.93
-0.101,0.176125,7.92,9.862,87.0,9.06,47.82
-0.101,0.297875,7.905,9.856,85.0,9.06,47.72
-0.103,0.145,7.921,9.855,85.0,9.06,47.65
-0.054,0.069875,7.92,9.851,85.0,9.06,47.57
-0.048,0.04925,7.911,9.83,85.0,9.06,47.47
-0.115,0.044,7.905,9.818,85.0,9.06,47.36
0.066,0.170875,7.899,9.809,85.0,9.07,47.22
0.757,0.12175,7.894,9.799,85.0,9.06,47.12
-0.114,0.119125,7.889,9.788,85.0,9.06,47.08
-0.092,0.25125,7.884,9.778,85.0,9.06,47.04
0.0,0.29,7.879,9.767,85.0,9.06,46.98
0.162,0.25375,7.874,9.758,85.0,9.07,46.94
0.005,0.240875,7.869,9.751,86.0,9.06,46.93
-0.102,0.2435,7.866,9.746,86.0,9.06,46.96
-0.109,0.168375,7.862,9.742,86.0,9.06,47.01
-0.105,0.681125,7.858,9.741,86.0,9.06,47.13
-0.106,1.667875,7.848,9.733,86.0,9.06,47.27
-0.11,0.316,7.828,9.727,86.0,9.06,47.41
-0.095,0.259,7.835,9.751,86.0,9.06,47.61
-0.03,0.25125,7.84,9.772,86.0,9.06,47.84
-0.102,0.191625,7.841,9.757,86.0,9.06,48.08
-0.13,0.106125,7.843,9.771,86.0,9.06,48.29
0.832,0.069875,7.838,9.76,85.0,9.06,48.52
-0.002,0.046625,7.837,9.761,85.0,9.05,48.75
-0.113,0.03625,7.836,9.761,85.0,9.05,48.98
-0.058,0.033625,7.836,9.758,85.0,9.06,49.21
0.089,0.041375,7.836,9.756,85.0,9.06,49.44
0.14,0.1165,7.837,9.751,85.0,9.06,49.53
-0.059,0.31075,7.838,9.746,85.0,9.05,49.42
-0.095,0.29,7.838,9.736,85.0,9.06,49.24
-0.095,0.341875,7.839,9.724,85.0,9.06,49.0
-0.092,0.29525,7.842,9.712,85.0,9.06,48.74
-0.091,0.220125,7.843,9.704,85.0,9.06,48.46
-0.092,0.160625,7.843,9.696,88.0,9.07,48.26
-0.07,0.35475,7.846,9.693,88.0,9.06,48.09
-0.007,0.259,7.847,9.687,88.0,9.06,47.94
-0.084,0.328875,7.848,9.677,88.0,9.06,47.83
-0.119,0.189,7.848,9.667,88.0,9.07,47.71
0.936,0.235625,7.851,9.656,88.0,9.07,47.55
-0.03,0.36775,7.851,9.645,88.0,9.07,47.45
-0.092,0.300375,7.848,9.634,88.0,9.07,47.38
-0.035,0.334125,7.848,9.622,88.0,9.07,47.33
0.125,0.202,7.846,9.609,88.0,9.07,47.23
0.143,0.31075,7.843,9.598,87.0,9.07,47.18
-0.05,0.36,7.839,9.585,87.0,9.06,47.12
-0.078,0.2745,7.837,9.573,87.0,9.07,47.07
-0.076,0.2305,7.829,9.562,87.0,9.07,47.03
-0.076,0.2745,7.823,9.55,87.0,9.06,46.99
-0.076,0.3315,7.817,9.538,87.0,9.06,46.91
-0.079,0.33925,7.808,9.527,87.0,9.06,46.81
-0.071,0.20975,7.799,9.516,87.0,9.06,46.76
0.0,0.1165,7.79,9.505,87.0,9.07,46.74
-0.058,0.32375,7.784,9.493,87.0,9.07,46.71
-0.095,0.372875,7.777,9.482,87.0,9.07,46.71
0.718,0.212375,7.772,9.471,87.0,9.07,46.78
0.178,0.2875,7.766,9.46,87.0,9.06,46.92
-0.088,0.196875,7.761,9.449,87.0,9.07,47.1
-0.044,0.233125,7.757,9.439,87.0,9.07,47.31
0.088,0.196875,7.752,9.429,87.0,9.07,47.55
0.188,0.308125,7.747,9.418,87.0,9.06,47.76
-0.018,0.35225,7.742,9.408,87.0,9.06,48.0
-0.071,0.398875,7.737,9.398,87.0,9.07,48.25
-0.073,0.170875,7.732,9.389,87.0,9.06,48.53
-0.074,0.25375,7.727,9.379,87.0,9.06,48.75
-0.077,0.2745,7.722,9.369,87.0,9.06,48.98
-0.078,0.33925,7.718,9.359,88.0,9.07,49.2
-0.077,0.25125,7.715,9.349,88.0,9.06,49.42
-0.01,0.119125,7.71,9.342,88.0,9.07,49.58
-0.045,0.3445,7.705,9.332,88.0,9.07,49.69
-0.097,0.297875,7.702,9.322,88.0,9.07,49.67
0.425,0.3445,7.697,9.312,88.0,9.07,49.5
0.437,0.347,7.695,9.303,88.0,9.07,49.26
-0.096,0.20975,7.69,9.294,88.0,9.06,49.04
-0.063,0.22275,7.687,9.286,88.0,9.07,48.8
0.05,0.199375,7.683,9.275,88.0,9.07,48.55
0.187,0.19425,7.68,9.267,88.0,9.07,48.38
-0.012,0.220125,7.678,9.257,86.0,9.06,48.23
-0.086,0.176125,7.674,9.25,86.0,9.06,48.11
-0.091,0.202,7.67,9.241,86.0,9.06,47.98
-0.088,0.404,7.665,9.234,86.0,9.07,47.73
-0.092,0.65525,7.664,9.233,86.0,9.07,47.72
-0.097,0.284875,7.663,9.227,86.0,9.06,47.61
-0.047,0.499875,7.66,9.222,86.0,9.06,47.53
-0.054,1.364875,7.658,9.218,86.0,9.07,47.46
-0.118,0.362625,7.652,9.199,86.0,9.07,47.36
0.153,0.259,7.644,9.181,86.0,9.07,47.26
0.648,0.261625,7.628,9.162,85.0,9.07,47.18
-0.115,0.23825,7.638,9.159,85.0,9.06,47.1
-0.087,0.235625,7.634,9.178,85.0,9.07,47.08
0.016,0.284875,7.643,9.204,85.0,9.07,46.98
0.175,0.341875,7.681,9.256,85.0,9.07,46.69
-0.001,0.32375,7.692,9.28,85.0,9.07,46.46
-0.095,0.35475,7.701,9.296,85.0,9.07,46.24
-0.099,0.334125,7.707,9.311,85.0,9.06,45.98
-0.097,0.3445,7.712,9.33,85.0,9.07,45.8
-0.096,2.058875,7.717,9.347,85.0,9.07,45.56
-0.1,0.82875,7.72,9.369,85.0,9.07,45.36
-0.062,0.204625,7.725,9.391,86.0,9.07,45.3
-0.027,0.303,7.728,9.412,86.0,9.07,45.25
-0.114,0.3185,7.733,9.42,86.0,9.07,45.19
-0.081,0.261625,7.754,9.446,86.0,9.07,45.27
0.918,0.13725,7.748,9.439,86.0,9.07,45.36
-0.102,0.088,7.751,9.451,86.0,9.07,45.4
-0.101,0.054375,7.754,9.456,86.0,9.06,45.62
-0.021,0.246,7.755,9.456,86.0,9.07,46.01
0.152,0.35475,7.756,9.446,86.0,9.07,46.59
0.037,0.3315,7.756,9.418,86.0,9.07,47.4
-0.099,0.414375,7.756,9.378,93.0,9.06,47.3
-0.11,0.3755,7.756,9.332,93.0,9.06,46.56
-0.107,0.336625,7.755,9.289,93.0,9.06,46.65
-0.106,0.336625,7.755,9.264,93.0,9.07,47.72
-0.108,0.393625,7.756,9.246,93.0,9.07,48.33
-0.09,0.297875,7.756,9.261,93.0,9.07,48.42
-0.029,0.297875,7.756,9.306,93.0,9.07,48.71
-0.109,0.168375,7.756,9.347,93.0,9.06,48.93
-0.146,0.248625,7.756,9.398,93.0,9.06,48.95
0.924,0.1165,7.754,9.432,93.0,9.07,48.92
-0.059,0.25375,7.754,9.444,91.0,9.06,48.84
-0.106,0.31075,7.756,9.439,91.0,9.07,48.85
-0.045,0.246,7.756,9.43,91.0,9.06,48.91
0.117,0.3445,7.756,9.425,91.0,9.07,48.82
0.11,0.041375,7.756,9.414,91.0,9.07,48.96
-0.075,0.25125,7.756,9.4,91.0,9.06,49.4
-0.096,0.22525,7.757,9.39,91.0,9.06,49.8
-0.099,0.119125,7.761,9.377,91.0,9.07,49.95
-0.097,0.22525,7.761,9.362,91.0,9.07,49.69
-0.095,0.025875,7.759,9.356,91.0,9.06,49.42
-0.097,0.2745,7.756,9.353,94.0,9.06,49.3
-0.043,0.292625,7.755,9.367,94.0,9.07,49.21
-0.043,0.277125,7.751,9.388,94.0,9.07,49.19
-0.11,0.3315,7.75,9.409,94.0,9.07,49.12
0.139,0.35225,7.749,9.429,94.0,9.07,49.03
0.7,0.196875,7.752,9.455,94.0,9.07,48.77
-0.109,0.2745,7.757,9.515,94.0,9.07,48.74
-0.085,0.191625,7.766,9.613,94.0,9.06,48.85
0.011,0.35475,7.774,9.705,94.0,9.07,48.92
0.176,0.05175,7.791,9.8,94.0,9.06,48.96
