ECG,EMG,foot GSR,hand GSR,HR,marker,RESP
-0.094,0.704,5.469,16.545,81.0,10.01,37.03
-0.089,0.642,5.47,16.564,81.0,10.01,36.86
-0.107,0.331,5.469,16.581,81.0,10.0,36.67
-0.097,0.684,5.469,16.593,81.0,10.0,36.38
-0.073,0.435,5.469,16.607,81.0,10.0,36.28
-0.149,0.642,5.469,16.62,81.0,10.0,36.24
0.117,0.539,5.469,16.628,81.0,10.0,36.29
-0.057,0.249,5.467,16.631,81.0,10.0,36.24
0.034,0.663,5.467,16.631,81.0,10.0,36.22
0.216,0.311,5.467,16.633,81.0,10.01,36.2
0.012,0.787,5.464,16.636,81.0,10.01,36.24
-0.106,0.601,5.464,16.636,82.0,10.01,36.3
-0.097,0.414,5.464,16.632,82.0,10.01,36.23
-0.117,0.58,5.463,16.624,82.0,10.01,36.22
-0.133,0.539,5.462,16.614,82.0,10.01,36.12
-0.129,0.58,5.462,16.603,82.0,10.01,36.07
-0.089,0.559,5.462,16.593,82.0,10.01,36.08
-0.164,0.539,5.46,16.591,82.0,10.01,36.19
0.084,0.373,5.459,16.599,82.0,10.01,36.28
-0.113,0.622,5.459,16.614,82.0,10.01,36.41
-0.017,0.373,5.459,16.62,82.0,10.0,36.57
0.152,0.725,5.458,16.626,82.0,10.0,36.73
0.023,0.394,5.457,16.626,82.0,10.0,36.9
-0.145,0.622,5.457,16.626,76.0,10.0,37.08
-0.144,0.456,5.457,16.624,76.0,10.0,37.26
-0.16,0.601,5.455,16.622,76.0,10.01,37.45
-0.181,0.352,5.454,16.619,76.0,10.02,37.5
-0.131,0.559,5.454,16.618,76.0,10.04,37.61
-0.183,0.414,5.454,16.617,76.0,10.04,37.83
0.088,0.601,5.452,16.614,76.0,10.05,38.1
-0.208,0.249,5.452,16.613,76.0,10.05,38.28
-0.057,0.746,5.452,16.613,76.0,10.04,38.42
0.098,0.352,5.452,16.614,76.0,10.04,38.56
0.125,0.663,5.449,16.614,76.0,10.05,38.64
-0.111,0.166,5.449,16.612,82.0,10.05,38.71
-0.117,0.539,5.449,16.608,82.0,10.05,38.68
-0.113,0.414,5.449,16.604,82.0,10.04,38.61
-0.127,0.642,5.447,16.599,82.0,10.04,38.39
-0.082,0.414,5.447,16.598,82.0,10.04,38.14
-0.116,0.601,5.447,16.597,82.0,10.04,38.03
0.087,0.622,5.447,16.596,82.0,10.04,37.95
-0.087,0.539,5.444,16.597,82.0,10.04,37.85
-0.016,0.684,5.444,16.595,82.0,10.04,37.66
0.13,0.663,5.444,16.587,82.0,10.04,37.53
0.201,0.58,5.444,16.582,82.0,10.04,37.37
-0.055,0.58,5.442,16.579,82.0,10.04,37.23
-0.071,0.539,5.442,16.577,83.0,10.04,37.13
-0.071,0.622,5.442,16.574,83.0,10.04,36.98
-0.088,0.725,5.44,16.572,83.0,10.04,36.81
-0.06,0.456,5.439,16.57,83.0,10.04,36.59
-0.072,0.601,5.439,16.567,83.0,10.04,36.53
-0.046,0.29,5.438,16.562,83.0,10.05,36.52
0.077,0.663,5.438,16.56,83.0,10.04,36.49
-0.017,0.331,5.437,16.556,83.0,10.05,36.4
0.102,0.601,5.437,16.554,83.0,10.05,36.38
0.235,0.58,5.437,16.552,83.0,10.05,36.34
-0.027,0.497,5.434,16.551,83.0,10.04,36.3
-0.077,0.642,5.434,16.551,82.0,10.05,36.3
-0.074,0.394,5.432,16.549,82.0,10.05,36.3
-0.095,0.642,5.432,16.546,82.0,10.05,36.28
-0.068,0.394,5.432,16.546,82.0,10.05,36.12
-0.078,0.58,5.429,16.546,82.0,10.04,36.07
-0.066,0.642,5.429,16.547,82.0,10.05,36.1
0.066,0.269,5.429,16.547,82.0,10.04,36.17
-0.023,0.642,5.428,16.546,82.0,10.05,36.17
0.097,0.311,5.427,16.546,82.0,10.05,36.21
0.233,0.746,5.427,16.544,82.0,10.05,36.21
-0.024,0.249,5.424,16.54,82.0,10.04,36.2
-0.074,0.746,5.424,16.537,84.0,10.05,36.21
-0.075,0.228,5.423,16.532,84.0,10.05,36.23
-0.097,0.642,5.422,16.527,84.0,10.04,36.26
-0.07,0.228,5.422,16.526,84.0,10.04,36.13
-0.089,0.394,5.422,16.526,84.0,10.05,36.13
-0.041,0.684,5.419,16.525,84.0,10.05,36.32
0.028,0.456,5.419,16.524,84.0,10.04,36.57
-0.032,0.684,5.417,16.522,84.0,10.05,36.7
0.089,0.311,5.417,16.521,84.0,10.05,36.89
0.201,0.663,5.417,16.52,84.0,10.05,37.06
-0.05,0.684,5.417,16.517,84.0,10.05,37.21
-0.097,0.331,5.417,16.516,84.0,10.05,37.4
-0.097,0.601,5.417,16.514,84.0,10.05,37.56
-0.102,0.456,5.414,16.511,84.0,10.05,37.68
-0.071,0.704,5.414,16.509,84.0,10.05,37.72
-0.143,0.394,5.413,16.508,84.0,10.05,37.86
0.114,0.787,5.412,16.508,84.0,10.04,38.04
-0.06,0.642,5.412,16.508,84.0,10.05,38.21
0.052,0.435,5.409,16.505,84.0,10.05,38.24
0.225,0.58,5.409,16.504,84.0,10.05,38.24
0.048,0.559,5.408,16.504,84.0,10.05,38.16
-0.065,0.663,5.407,16.503,90.0,10.05,38.05
-0.062,0.394,5.407,16.504,90.0,10.05,37.87
-0.065,0.331,5.407,16.508,90.0,10.05,37.74
-0.021,0.704,5.407,16.51,90.0,10.05,37.44
-0.068,0.477,5.407,16.505,90.0,10.05,37.18
0.146,0.601,5.404,16.503,90.0,10.05,37.08
-0.05,0.622,5.402,16.502,90.0,10.05,36.87
0.03,0.394,5.402,16.5,90.0,10.05,36.85
0.178,0.87,5.402,16.499,90.0,10.05,36.76
0.223,0.269,5.4,16.499,90.0,10.05,36.71
-0.031,0.787,5.399,16.499,90.0,10.05,36.63
-0.041,0.29,5.398,16.498,88.0,10.05,36.55
-0.049,0.331,5.397,16.504,88.0,10.05,36.48
-0.032,0.601,5.397,16.51,88.0,10.05,36.41
-0.038,0.394,5.394,16.51,88.0,10.05,36.25
-0.075,0.414,5.394,16.505,88.0,10.05,36.28
0.145,0.456,5.394,16.5,88.0,10.05,36.3
-0.011,0.414,5.392,16.498,88.0,10.05,36.32
0.089,0.684,5.393,16.495,88.0,10.05,36.3
0.224,0.269,5.392,16.497,88.0,10.05,36.33
-0.024,0.249,5.392,16.498,88.0,10.05,36.45
-0.096,0.497,5.391,16.503,90.0,10.05,36.69
-0.101,0.601,5.39,16.508,90.0,10.05,36.82
-0.097,0.767,5.39,16.51,90.0,10.05,37.05
-0.098,0.394,5.39,16.515,90.0,10.05,37.1
-0.123,0.269,5.388,16.52,90.0,10.05,37.25
0.065,0.725,5.387,16.526,90.0,10.05,37.53
-0.061,0.29,5.387,16.532,90.0,10.05,37.79
0.049,0.58,5.386,16.537,90.0,10.05,37.97
0.177,0.725,5.387,16.545,90.0,10.05,38.16
-0.055,0.373,5.386,16.552,90.0,10.05,38.35
-0.115,0.684,5.385,16.56,93.0,10.05,38.55
-0.104,0.373,5.385,16.568,93.0,10.05,38.68
-0.073,0.663,5.382,16.581,93.0,10.05,38.81
-0.115,0.394,5.382,16.594,93.0,10.05,38.81
0.108,0.58,5.382,16.611,93.0,10.05,38.93
-0.096,0.29,5.381,16.634,93.0,10.05,39.03
-0.005,0.704,5.38,16.66,93.0,10.04,39.08
0.148,0.29,5.38,16.688,93.0,10.05,39.0
0.192,0.497,5.38,16.711,93.0,10.05,38.95
-0.042,0.497,5.38,16.737,93.0,10.05,38.87
-0.05,0.497,5.377,16.764,95.0,10.05,38.72
-0.045,0.539,5.377,16.785,95.0,10.05,38.56
-0.041,0.29,5.377,16.803,95.0,10.05,38.36
-0.03,0.704,5.376,16.825,95.0,10.05,38.09
-0.085,0.394,5.375,16.845,95.0,10.05,37.97
0.171,0.642,5.375,16.864,95.0,10.05,37.91
0.005,0.207,5.375,16.88,95.0,10.05,37.84
0.113,0.58,5.375,16.894,95.0,10.05,37.71
0.28,0.186,5.373,16.904,95.0,10.05,37.6
0.035,0.767,5.372,16.91,95.0,10.05,37.45
-0.034,0.311,5.372,16.915,89.0,10.05,37.29
-0.023,0.58,5.372,16.915,89.0,10.05,37.16
-0.031,0.477,5.37,16.913,89.0,10.05,37.02
0.001,0.912,5.37,16.91,89.0,10.05,36.76
-0.076,0.394,5.37,16.908,89.0,10.05,36.66
0.201,0.767,5.37,16.903,89.0,10.05,36.61
0.002,0.269,5.37,16.898,89.0,10.05,36.62
0.09,0.684,5.37,16.895,89.0,10.05,36.53
0.272,0.477,5.368,16.89,89.0,10.05,36.52
0.107,0.331,5.367,16.885,89.0,10.05,36.49
-0.029,0.663,5.367,16.88,90.0,10.05,36.5
-0.018,0.228,5.367,16.877,90.0,10.05,36.46
-0.031,0.207,5.365,16.873,90.0,10.05,36.42
-0.03,0.725,5.365,16.87,90.0,10.05,36.29
0.002,0.269,5.365,16.869,90.0,10.05,36.22
-0.077,0.539,5.363,16.869,90.0,10.05,36.33
0.179,0.352,5.362,16.869,90.0,10.05,36.53
-0.017,0.228,5.362,16.873,90.0,10.05,36.66
0.069,0.352,5.361,16.878,90.0,10.05,36.85
0.238,0.539,5.36,16.883,90.0,10.05,37.01
0.088,0.29,5.36,16.89,90.0,10.05,37.15
-0.057,0.228,5.358,16.901,84.0,10.05,37.35
-0.054,0.684,5.357,16.913,84.0,10.05,37.53
-0.078,0.704,5.357,16.928,84.0,10.05,37.67
-0.101,0.394,5.357,16.942,84.0,10.05,37.7
-0.079,0.352,5.356,16.961,84.0,10.05,37.85
-0.08,0.58,5.355,16.982,84.0,10.05,38.04
-0.057,0.311,5.355,17.006,84.0,10.05,38.27
0.054,0.539,5.355,17.03,84.0,10.05,38.38
-0.016,0.829,5.355,17.052,84.0,10.05,38.52
0.105,0.249,5.352,17.073,84.0,10.05,38.62
0.225,0.642,5.352,17.094,84.0,10.05,38.69
-0.008,0.311,5.352,17.113,84.0,10.05,38.77
-0.059,0.829,5.35,17.131,80.0,10.05,38.85
-0.047,0.559,5.35,17.144,80.0,10.05,38.77
-0.067,0.373,5.35,17.152,80.0,10.06,38.62
-0.079,0.331,5.35,17.16,80.0,10.06,38.42
-0.068,0.704,5.348,17.164,80.0,10.06,38.33
-0.025,0.352,5.347,17.168,80.0,10.06,38.25
-0.095,0.684,5.347,17.165,80.0,10.06,38.18
0.17,0.331,5.347,17.161,80.0,10.06,38.04
-0.015,0.663,5.347,17.155,80.0,10.05,37.95
0.085,0.249,5.347,17.146,80.0,10.05,37.85
0.27,0.663,5.347,17.137,80.0,10.05,37.72
0.097,0.207,5.347,17.124,80.0,10.05,37.58
-0.039,0.684,5.345,17.113,75.0,10.05,37.45
-0.029,0.642,5.345,17.099,75.0,10.05,37.24
-0.046,0.352,5.343,17.088,75.0,10.05,37.04
-0.061,0.684,5.342,17.078,75.0,10.05,36.74
-0.056,0.663,5.342,17.073,75.0,10.05,36.55
-0.015,0.331,5.342,17.073,75.0,10.05,36.49
-0.09,0.684,5.342,17.082,75.0,10.05,36.53
0.168,0.373,5.342,17.102,75.0,10.06,36.53
-0.018,0.704,5.34,17.135,75.0,10.06,36.52
0.076,0.767,5.34,17.181,75.0,10.06,36.58
0.258,0.311,5.34,17.241,75.0,10.05,36.59
0.094,0.559,5.338,17.314,75.0,10.05,36.57
-0.062,0.435,5.338,17.401,76.0,10.05,36.6
-0.058,0.539,5.337,17.5,76.0,10.05,36.64
-0.074,0.311,5.337,17.606,76.0,10.05,36.74
-0.095,0.249,5.337,17.726,76.0,10.05,36.72
-0.098,0.186,5.337,17.851,76.0,10.05,36.76
-0.051,0.622,5.335,17.981,76.0,10.05,36.98
-0.12,0.29,5.335,18.113,76.0,10.06,37.25
0.135,0.249,5.333,18.247,76.0,10.06,37.42
-0.089,0.29,5.332,18.381,76.0,10.05,37.7
0.014,0.249,5.332,18.509,76.0,10.06,37.9
0.188,0.249,5.332,18.628,76.0,10.06,38.06
0.08,0.269,5.332,18.74,76.0,10.05,38.26
-0.105,0.684,5.332,18.857,77.0,10.05,38.49
-0.092,0.352,5.332,18.955,77.0,10.06,38.65
-0.097,0.622,5.332,19.045,77.0,10.06,38.76
-0.11,0.249,5.331,19.119,77.0,10.05,38.76
-0.055,0.559,5.332,19.188,77.0,10.05,38.82
-0.111,0.311,5.332,19.258,77.0,10.05,38.91
0.162,0.663,5.333,19.325,77.0,10.05,38.97
-0.116,0.249,5.335,19.392,77.0,10.05,38.88
0.025,0.207,5.336,19.459,77.0,10.05,38.75
0.206,0.207,5.337,19.527,77.0,10.06,38.62
0.15,0.249,5.34,19.588,77.0,10.05,38.48
-0.068,0.539,5.341,19.643,82.0,10.05,38.34
-0.06,0.704,5.345,19.691,82.0,10.06,38.18
-0.061,0.414,5.348,19.724,82.0,10.06,38.04
-0.064,0.663,5.352,19.754,82.0,10.06,37.8
-0.045,0.684,5.356,19.787,82.0,10.05,37.57
-0.014,0.249,5.363,19.817,82.0,10.05,37.84
-0.09,0.642,5.373,19.849,82.0,10.05,37.95
0.17,0.352,5.378,19.887,82.0,10.05,37.34
0.0,0.642,5.386,19.92,82.0,10.05,36.89
0.094,0.435,5.392,19.934,82.0,10.05,36.7
0.277,0.58,5.398,19.942,82.0,10.05,36.56
0.071,0.249,5.406,19.942,82.0,10.05,36.51
-0.043,0.29,5.416,19.925,80.0,10.05,36.63
-0.035,0.684,5.425,19.903,80.0,10.05,36.62
-0.053,0.166,5.433,19.878,80.0,10.05,36.59
-0.058,0.186,5.441,19.859,80.0,10.05,36.4
-0.019,0.601,5.449,19.834,80.0,10.05,36.26
-0.095,0.477,5.456,19.813,80.0,10.05,36.29
0.155,0.249,5.464,19.793,80.0,10.05,36.46
-0.039,0.186,5.474,19.777,80.0,10.05,36.64
0.047,0.249,5.481,19.764,80.0,10.05,36.73
0.223,0.207,5.488,19.757,80.0,10.05,36.9
0.076,0.249,5.495,19.756,80.0,10.05,37.06
-0.08,0.269,5.503,19.75,83.0,10.05,37.29
-0.076,0.269,5.511,19.748,83.0,10.05,37.52
-0.092,0.207,5.517,19.762,83.0,10.05,37.73
-0.067,0.166,5.525,19.795,83.0,10.05,37.77
-0.098,0.269,5.53,19.842,83.0,10.05,37.89
0.054,0.331,5.536,19.895,83.0,10.05,38.07
-0.054,0.186,5.542,19.954,83.0,10.05,38.27
-0.014,0.269,5.548,20.014,83.0,10.05,38.36
0.124,0.186,5.556,20.074,83.0,10.05,38.44
0.205,0.269,5.563,20.133,83.0,10.05,38.51
-0.05,0.311,5.572,20.199,83.0,10.05,38.53
-0.069,0.186,5.578,20.256,88.0,10.05,38.5
-0.068,0.311,5.585,20.304,88.0,10.05,38.39
-0.077,0.352,5.594,20.347,88.0,10.05,38.23
-0.036,0.29,5.604,20.361,88.0,10.05,38.01
-0.112,0.29,5.613,20.36,88.0,10.05,37.9
0.142,0.207,5.623,20.356,88.0,10.05,37.82
-0.046,0.394,5.63,20.346,88.0,10.05,37.75
0.056,0.311,5.637,20.332,88.0,10.05,37.61
0.239,0.311,5.645,20.303,88.0,10.05,37.47
0.08,0.311,5.653,20.27,88.0,10.05,37.34
-0.054,0.29,5.66,20.226,88.0,10.05,37.22
-0.046,0.29,5.667,20.18,88.0,10.05,37.11
-0.059,0.269,5.674,20.125,88.0,10.05,37.01
-0.023,0.249,5.681,20.064,88.0,10.05,36.8
-0.074,0.269,5.689,20.01,88.0,10.05,36.65
0.128,0.29,5.697,19.964,88.0,10.05,36.6
-0.052,0.249,5.707,19.918,88.0,10.05,36.63
0.014,0.228,5.717,19.876,88.0,10.05,36.59
0.156,0.331,5.727,19.842,88.0,10.05,36.58
0.211,0.249,5.737,19.826,88.0,10.05,36.53
-0.041,0.331,5.747,19.805,88.0,10.05,36.5
-0.048,0.269,5.757,19.804,89.0,10.05,36.5
-0.056,0.269,5.766,19.797,89.0,10.05,36.5
-0.074,0.29,5.773,19.785,89.0,10.05,36.44
-0.022,0.228,5.786,19.774,89.0,10.05,36.28
-0.086,0.207,5.799,19.756,89.0,10.05,36.26
0.168,0.331,5.812,19.729,89.0,10.05,36.32
-0.106,0.29,5.822,19.697,89.0,10.05,36.36
0.012,0.207,5.832,19.662,89.0,10.05,36.4
0.157,0.249,5.841,19.627,89.0,10.05,36.48
0.152,0.269,5.85,19.588,89.0,10.05,36.61
-0.069,0.228,5.858,19.543,85.0,10.05,36.77
-0.076,0.269,5.866,19.497,85.0,10.05,36.98
-0.098,0.166,5.874,19.447,85.0,10.05,37.13
-0.118,0.331,5.881,19.397,85.0,10.05,37.16
-0.07,0.249,5.89,19.351,85.0,10.05,37.24
-0.136,0.228,5.896,19.299,85.0,10.05,37.45
0.123,0.228,5.905,19.242,85.0,10.05,37.69
-0.157,0.352,5.914,19.187,85.0,10.05,37.87
-0.029,0.207,5.92,19.136,85.0,10.05,38.0
0.119,0.58,5.925,19.086,84.0,10.05,38.16
0.085,0.269,5.931,19.037,84.0,10.05,38.28
-0.106,0.186,5.937,18.982,84.0,10.05,38.41
-0.101,0.29,5.943,18.923,84.0,10.05,38.54
-0.111,0.311,5.95,18.867,84.0,10.05,38.66
-0.092,0.269,5.955,18.819,84.0,10.05,38.66
-0.099,0.207,5.959,18.775,84.0,10.05,38.65
-0.049,0.269,5.961,18.736,84.0,10.05,38.72
0.028,0.311,5.965,18.703,84.0,10.05,38.75
-0.026,0.186,5.969,18.673,84.0,10.05,38.69
0.1,0.249,5.971,18.642,84.0,10.05,38.55
0.206,0.228,5.971,18.612,84.0,10.05,38.4
-0.031,0.29,5.971,18.596,84.0,10.05,38.23
-0.059,0.269,5.971,18.592,89.0,10.05,38.1
-0.056,0.249,5.972,18.592,89.0,10.05,37.94
-0.077,0.331,5.975,18.608,89.0,10.05,37.75
-0.023,0.207,5.975,18.628,89.0,10.05,37.42
-0.095,0.269,5.974,18.646,89.0,10.05,37.29
0.169,0.435,5.974,18.654,89.0,10.05,37.2
-0.088,0.269,5.974,18.654,89.0,10.05,37.09
0.027,0.29,5.974,18.653,89.0,10.05,36.97
0.189,0.228,5.974,18.652,89.0,10.05,36.87
0.137,0.311,5.974,18.641,89.0,10.05,36.78
-0.059,0.331,5.974,18.635,88.0,10.05,36.68
-0.05,0.186,5.976,18.629,88.0,10.05,36.62
-0.064,0.394,5.98,18.62,88.0,10.05,36.56
-0.046,0.249,5.979,18.618,88.0,10.05,36.42
-0.064,0.29,5.979,18.605,88.0,10.05,36.25
-0.047,0.269,5.977,18.581,88.0,10.05,36.26
0.087,0.186,5.976,18.552,88.0,10.06,36.33
-0.014,0.249,5.975,18.531,88.0,10.06,36.36
0.102,0.166,5.974,18.511,88.0,10.06,36.35
0.22,0.269,5.971,18.488,88.0,10.05,36.33
-0.029,0.249,5.97,18.462,88.0,10.05,36.3
-0.074,0.186,5.967,18.435,88.0,10.05,36.3
-0.076,0.166,5.965,18.405,88.0,10.05,36.28
-0.096,0.373,5.962,18.374,88.0,10.06,36.38
-0.048,0.166,5.959,18.353,88.0,10.06,36.25
-0.128,0.207,5.957,18.332,88.0,10.06,36.31
0.11,0.207,5.954,18.307,88.0,10.05,36.7
-0.131,0.249,5.954,18.306,88.0,10.05,36.72
-0.02,0.228,5.952,18.305,88.0,10.05,36.93
0.13,0.186,5.95,18.312,88.0,10.05,37.17
0.06,0.249,5.949,18.329,88.0,10.06,37.33
-0.126,0.186,5.946,18.35,88.0,10.06,37.52
-0.121,0.311,5.944,18.377,88.0,10.05,37.72
-0.142,0.249,5.941,18.409,88.0,10.05,37.9
-0.117,0.186,5.937,18.446,88.0,10.05,37.93
-0.154,0.29,5.935,18.485,88.0,10.06,38.02
0.055,0.186,5.932,18.521,88.0,10.06,38.22
-0.149,0.249,5.929,18.556,88.0,10.07,38.41
-0.053,0.269,5.927,18.589,88.0,10.07,38.5
0.088,0.145,5.924,18.619,90.0,10.07,38.58
0.14,0.249,5.92,18.644,90.0,10.06,38.63
-0.082,0.228,5.918,18.664,90.0,10.07,38.61
-0.084,0.269,5.914,18.68,90.0,10.07,38.51
-0.081,0.228,5.912,18.691,90.0,10.07,38.39
-0.102,0.166,5.909,18.698,90.0,10.07,38.22
-0.044,0.331,5.905,18.699,90.0,10.06,37.93
-0.115,0.269,5.903,18.698,90.0,10.04,37.77
0.145,0.269,5.9,18.689,90.0,10.04,37.66
-0.093,0.269,5.898,18.675,90.0,10.02,37.52
0.022,0.186,5.895,18.657,90.0,10.05,37.32
0.185,0.269,5.892,18.637,90.0,10.06,37.21
0.119,0.207,5.889,18.613,90.0,10.06,37.04
-0.07,0.435,5.887,18.587,86.0,10.07,36.9
-0.062,0.207,5.885,18.558,86.0,10.07,36.83
-0.076,0.331,5.883,18.53,86.0,10.1,36.73
-0.095,0.352,5.88,18.501,86.0,10.1,36.57
-0.043,0.269,5.878,18.475,86.0,10.11,36.49
-0.103,0.331,5.875,18.447,86.0,10.11,36.45
0.15,0.29,5.873,18.424,86.0,10.12,36.51
-0.119,0.207,5.87,18.399,86.0,10.12,36.59
0.001,0.269,5.868,18.372,86.0,10.11,36.63
0.15,0.269,5.867,18.346,86.0,10.1,36.59
0.147,0.186,5.863,18.317,86.0,10.1,36.53
-0.072,0.311,5.86,18.292,83.0,10.1,36.63
-0.071,0.311,5.858,18.269,83.0,10.11,36.68
-0.098,1.14,5.854,18.249,83.0,10.11,36.61
-0.107,1.14,5.852,18.229,83.0,10.11,36.48
-0.077,0.477,5.85,18.21,83.0,10.11,36.42
-0.089,0.642,5.847,18.183,83.0,10.11,36.42
-0.066,0.725,5.844,18.162,83.0,10.11,36.34
0.027,1.885,5.839,18.141,83.0,10.1,36.51
-0.042,0.58,5.839,18.138,83.0,10.1,36.52
0.069,1.554,5.837,18.128,83.0,10.1,36.72
0.177,0.684,5.834,18.118,83.0,10.08,36.98
-0.066,1.16,5.833,18.111,83.0,10.1,37.21
-0.117,0.456,5.831,18.106,81.0,10.1,37.54
-0.115,1.16,5.828,18.101,81.0,10.08,37.94
-0.142,1.119,5.826,18.096,81.0,10.08,38.25
-0.099,0.891,5.822,18.091,81.0,10.08,38.37
-0.151,1.16,5.82,18.085,81.0,10.1,38.57
0.104,1.14,5.818,18.079,81.0,10.08,38.89
-0.195,0.414,5.816,18.074,81.0,10.06,39.23
-0.049,1.285,5.815,18.069,81.0,10.04,39.43
0.105,0.932,5.812,18.064,87.0,10.04,39.6
0.105,1.243,5.811,18.059,87.0,10.04,39.82
-0.116,0.849,5.808,18.054,87.0,10.04,39.97
-0.109,1.14,5.806,18.049,87.0,10.05,39.98
-0.108,1.202,5.805,18.046,87.0,10.05,40.03
-0.124,0.559,5.803,18.041,87.0,10.06,39.93
-0.07,1.927,5.801,18.036,87.0,10.06,39.71
-0.121,1.264,5.8,18.034,87.0,10.06,39.59
0.142,0.373,5.797,18.029,87.0,10.07,39.52
-0.141,0.829,5.797,18.024,87.0,10.06,39.45
0.0,1.222,5.795,18.019,87.0,10.05,39.38
0.164,0.849,5.792,18.014,87.0,10.06,39.25
0.158,1.202,5.791,18.008,87.0,10.06,39.06
-0.073,1.367,5.79,17.999,87.0,10.05,38.92
-0.072,0.891,5.787,17.994,84.0,10.05,38.78
-0.077,1.347,5.786,17.992,84.0,10.04,38.7
-0.091,1.222,5.785,17.987,84.0,10.04,38.57
-0.048,0.58,5.782,17.983,84.0,10.05,38.46
-0.078,1.388,5.781,17.977,84.0,10.05,38.6
0.074,0.787,5.78,17.972,84.0,10.06,38.68
-0.025,0.642,5.777,17.971,84.0,10.06,38.5
-0.002,1.036,5.775,17.968,84.0,10.07,38.09
0.144,0.477,5.773,17.971,84.0,10.07,37.7
0.232,0.166,5.772,17.977,84.0,10.07,37.39
-0.037,0.186,5.77,17.985,84.0,10.08,37.03
-0.054,0.228,5.768,17.999,82.0,10.1,36.74
-0.059,0.829,5.767,18.015,82.0,10.1,36.72
-0.074,0.787,5.765,18.035,82.0,10.1,36.84
-0.025,0.166,5.763,18.061,82.0,10.1,36.84
-0.072,0.622,5.761,18.086,82.0,10.1,36.54
0.154,1.057,5.76,18.107,82.0,10.1,36.23
-0.08,0.559,5.757,18.131,82.0,10.1,36.18
0.019,0.29,5.757,18.152,82.0,10.1,36.3
0.163,0.207,5.756,18.171,82.0,10.1,36.53
0.189,0.642,5.755,18.189,82.0,10.1,36.78
-0.054,0.269,5.753,18.202,82.0,10.1,37.07
-0.07,0.166,5.752,18.198,85.0,10.1,37.28
-0.077,0.269,5.75,18.197,85.0,10.08,37.51
-0.066,0.186,5.748,18.197,85.0,10.1,37.65
-0.089,0.29,5.746,18.194,85.0,10.1,37.77
-0.021,0.29,5.745,18.192,85.0,10.1,38.03
-0.008,0.622,5.743,18.189,85.0,10.1,38.34
-0.032,0.331,5.743,18.192,85.0,10.1,38.62
0.092,0.601,5.74,18.199,85.0,10.1,38.79
0.198,0.145,5.739,18.212,85.0,10.1,38.96
-0.048,0.518,5.738,18.23,85.0,10.1,39.14
-0.078,0.207,5.738,18.255,91.0,10.1,39.29
-0.063,0.145,5.736,18.285,91.0,10.1,39.38
-0.024,0.207,5.735,18.32,91.0,10.1,39.44
-0.07,0.207,5.734,18.36,91.0,10.1,39.29
0.197,0.456,5.733,18.402,91.0,10.08,39.24
-0.085,0.311,5.73,18.447,91.0,10.08,39.22
0.049,0.331,5.73,18.489,91.0,10.08,39.14
0.205,0.269,5.729,18.534,91.0,10.08,38.95
0.218,0.311,5.728,18.577,91.0,10.08,38.73
-0.008,0.663,5.728,18.621,91.0,10.08,38.41
-0.003,0.58,5.725,18.664,94.0,10.08,38.34
-0.001,0.331,5.725,18.703,94.0,10.08,38.53
0.039,0.29,5.724,18.736,94.0,10.08,38.5
0.256,0.311,5.723,18.762,94.0,10.08,38.18
0.229,0.29,5.723,18.786,94.0,10.08,38.04
-0.025,0.145,5.723,18.802,94.0,10.08,37.94
0.09,0.228,5.723,18.81,94.0,10.08,37.83
0.251,0.207,5.723,18.816,94.0,10.08,37.67
0.241,0.311,5.72,18.809,94.0,10.08,37.47
0.002,0.228,5.72,18.809,94.0,10.08,37.45
0.008,0.331,5.72,18.798,94.0,10.08,37.31
0.002,0.186,5.72,18.785,94.0,10.08,37.14
0.032,0.249,5.72,18.758,94.0,10.08,36.85
-0.024,0.269,5.72,18.737,94.0,10.07,36.52
0.206,0.29,5.72,18.724,94.0,10.07,36.49
-0.011,0.249,5.719,18.704,94.0,10.06,36.79
0.061,0.311,5.72,18.684,94.0,10.06,37.08
0.212,0.166,5.721,18.664,94.0,10.06,37.07
0.23,0.186,5.723,18.643,94.0,10.06,37.04
-0.019,0.249,5.723,18.62,94.0,10.06,37.09
-0.032,0.186,5.72,18.597,91.0,10.05,37.3
-0.047,0.249,5.721,18.575,91.0,10.05,37.58
-0.039,0.352,5.723,18.553,91.0,10.05,37.71
-0.05,0.249,5.723,18.535,91.0,10.05,37.73
-0.068,0.186,5.723,18.515,91.0,10.05,37.87
0.096,0.207,5.723,18.495,91.0,10.05,38.13
-0.03,0.207,5.723,18.473,91.0,10.05,38.34
0.078,0.228,5.723,18.454,91.0,10.05,38.44
0.196,0.207,5.723,18.437,91.0,10.04,38.64
-0.045,0.207,5.721,18.419,91.0,10.04,38.83
-0.105,0.166,5.72,18.409,90.0,10.04,39.04
-0.094,0.228,5.72,18.4,90.0,10.05,39.24
-0.075,0.186,5.72,18.393,90.0,10.04,39.27
-0.1,0.207,5.72,18.382,90.0,10.04,39.3
0.002,0.186,5.718,18.36,90.0,10.05,39.44
-0.001,0.249,5.718,18.342,90.0,10.04,39.59
-0.013,0.249,5.718,18.318,90.0,10.04,39.73
0.131,0.228,5.718,18.294,90.0,10.04,39.67
0.215,0.186,5.718,18.278,90.0,10.05,39.57
-0.031,0.166,5.718,18.273,90.0,10.04,39.43
-0.048,0.186,5.715,18.264,94.0,10.04,39.14
-0.061,0.207,5.715,18.255,94.0,10.04,38.91
-0.065,0.207,5.715,18.245,94.0,10.04,38.66
-0.018,0.166,5.715,18.239,94.0,10.04,38.31
-0.076,0.228,5.713,18.237,94.0,10.04,38.08
0.193,0.186,5.711,18.238,94.0,10.04,37.86
-0.081,0.269,5.71,18.27,94.0,10.04,37.53
0.03,0.186,5.71,18.274,94.0,10.04,37.51
0.186,0.145,5.71,18.282,94.0,10.04,37.43
0.202,0.186,5.709,18.287,94.0,10.04,37.3
-0.048,0.228,5.708,18.295,94.0,10.04,37.16
-0.048,0.166,5.708,18.302,85.0,10.04,37.11
-0.058,0.186,5.705,18.307,85.0,10.04,37.03
-0.078,0.186,5.705,18.316,85.0,10.04,36.85
-0.027,0.207,5.703,18.327,85.0,10.04,36.63
-0.092,0.207,5.703,18.347,85.0,10.04,36.64
0.165,0.269,5.7,18.368,85.0,10.04,36.73
-0.095,0.29,5.7,18.389,85.0,10.05,36.77
0.02,0.29,5.699,18.42,85.0,10.05,36.65
0.19,0.29,5.698,18.453,85.0,10.05,36.67
0.154,0.228,5.695,18.486,85.0,10.05,36.62
-0.071,0.186,5.695,18.512,85.0,10.06,36.69
-0.074,0.207,5.693,18.539,85.0,10.06,36.67
-0.088,0.124,5.691,18.562,85.0,10.06,36.68
-0.107,0.186,5.69,18.585,85.0,10.06,36.59
-0.057,0.166,5.689,18.603,85.0,10.07,36.5
-0.123,0.228,5.688,18.616,85.0,10.06,36.59
0.132,0.249,5.685,18.623,85.0,10.06,36.8
-0.135,0.207,5.684,18.628,85.0,10.06,37.0
-0.021,0.207,5.683,18.629,85.0,10.06,37.17
0.14,0.186,5.68,18.627,84.0,10.06,37.35
0.114,0.249,5.679,18.626,84.0,10.06,37.51
-0.112,0.166,5.678,18.621,84.0,10.07,37.68
-0.119,0.186,5.676,18.616,84.0,10.07,37.84
-0.131,0.166,5.675,18.612,84.0,10.07,37.99
-0.127,0.186,5.674,18.607,84.0,10.07,38.09
-0.124,0.207,5.673,18.609,84.0,10.07,38.24
-0.159,0.311,5.671,18.624,84.0,10.07,38.5
0.03,0.331,5.67,18.654,84.0,10.07,38.81
-0.08,0.207,5.669,18.701,84.0,10.07,39.1
0.048,0.166,5.668,18.767,84.0,10.07,39.41
0.192,0.166,5.666,18.852,88.0,10.07,39.75
-0.041,0.207,5.665,18.952,88.0,10.07,39.94
-0.093,0.166,5.665,19.063,88.0,10.06,40.02
-0.072,0.228,5.663,19.183,88.0,10.07,39.98
-0.078,0.145,5.663,19.305,88.0,10.07,39.74
-0.025,0.228,5.661,19.423,88.0,10.07,39.33
-0.073,0.166,5.66,19.538,88.0,10.07,39.02
0.171,0.207,5.66,19.649,88.0,10.07,38.74
-0.071,0.373,5.658,19.743,88.0,10.07,38.52
0.042,0.249,5.658,19.828,88.0,10.07,38.25
0.2,0.249,5.658,19.902,88.0,10.07,38.1
0.222,0.186,5.656,19.969,88.0,10.07,37.94
-0.021,0.228,5.656,20.024,88.0,10.07,37.67
-0.021,0.249,5.656,20.07,87.0,10.07,37.54
-0.026,0.207,5.656,20.105,87.0,10.07,37.55
-0.046,0.166,5.653,20.132,87.0,10.07,37.31
-0.053,0.331,5.653,20.154,87.0,10.07,37.03
-0.057,0.29,5.653,20.177,87.0,10.07,37.02
0.107,0.249,5.653,20.203,87.0,10.07,36.99
0.008,0.166,5.653,20.236,87.0,10.07,37.04
0.038,0.166,5.653,20.277,87.0,10.07,37.09
0.175,0.145,5.654,20.378,87.0,10.07,37.07
0.245,0.186,5.653,20.384,87.0,10.07,37.06
-0.015,0.186,5.653,20.438,87.0,10.07,37.1
-0.03,0.166,5.653,20.503,83.0,10.07,37.12
-0.032,0.207,5.654,20.581,83.0,10.07,37.06
-0.054,0.145,5.656,20.667,83.0,10.07,37.0
-0.061,0.186,5.656,20.747,83.0,10.07,36.82
-0.001,0.186,5.658,20.817,83.0,10.07,36.79
-0.071,0.269,5.659,20.869,83.0,10.07,36.91
0.165,0.186,5.661,20.915,83.0,10.07,36.97
-0.072,0.249,5.663,20.951,83.0,10.07,37.0
0.038,0.228,5.664,20.975,83.0,10.07,37.06
0.192,0.249,5.665,20.987,83.0,10.07,37.15
0.126,0.207,5.668,20.989,83.0,10.07,37.25
-0.075,0.249,5.669,20.981,80.0,10.07,37.39
-0.076,0.186,5.671,20.961,80.0,10.07,37.57
-0.096,0.166,5.674,20.93,80.0,10.07,37.78
-0.12,0.207,5.676,20.892,80.0,10.07,37.82
-0.104,0.249,5.679,20.848,80.0,10.07,37.96
-0.1,0.145,5.681,20.796,80.0,10.07,38.22
-0.103,0.249,5.685,20.74,80.0,10.07,38.52
0.028,0.228,5.689,20.679,80.0,10.07,38.71
-0.056,0.166,5.694,20.619,80.0,10.07,38.87
0.063,0.166,5.699,20.553,80.0,10.07,39.05
0.187,0.228,5.704,20.485,80.0,10.07,39.2
-0.042,0.207,5.706,20.416,80.0,10.07,39.32
-0.093,0.166,5.715,20.347,80.0,10.07,39.45
-0.08,0.186,5.721,20.281,80.0,10.07,39.51
-0.096,0.186,5.726,20.215,80.0,10.07,39.44
-0.066,0.249,5.729,20.153,80.0,10.07,39.2
-0.079,0.228,5.734,20.095,80.0,10.07,39.07
-0.022,0.228,5.739,20.037,80.0,10.07,38.99
0.041,0.228,5.744,19.983,80.0,10.07,38.88
-0.002,0.166,5.746,19.932,80.0,10.07,38.71
0.126,0.228,5.751,19.882,80.0,10.07,38.57
0.233,0.186,5.756,19.836,80.0,10.07,38.4
-0.027,0.207,5.758,19.79,80.0,10.07,38.19
-0.058,0.166,5.763,19.748,85.0,10.07,38.03
-0.055,0.373,5.767,19.708,85.0,10.07,37.88
-0.027,0.414,5.771,19.667,85.0,10.07,37.68
-0.017,0.311,5.773,19.633,85.0,10.07,37.38
-0.067,0.186,5.777,19.604,85.0,10.07,37.22
0.084,0.207,5.778,19.577,85.0,10.07,37.2
-0.013,0.228,5.78,19.557,85.0,10.07,37.18
0.016,0.207,5.783,19.547,85.0,10.07,37.06
0.152,0.186,5.785,19.547,85.0,10.07,37.06
0.221,0.228,5.787,19.55,85.0,10.07,37.03
-0.037,0.207,5.788,19.562,85.0,10.07,36.99
-0.055,0.166,5.79,19.582,84.0,10.07,37.0
-0.059,0.207,5.792,19.607,84.0,10.07,36.99
-0.073,0.207,5.792,19.638,84.0,10.07,36.94
-0.023,0.207,5.795,19.672,84.0,10.07,36.78
-0.105,0.249,5.795,19.707,84.0,10.07,36.75
0.13,0.166,5.795,19.739,84.0,10.07,36.83
-0.066,0.228,5.795,19.776,84.0,10.07,36.92
0.027,0.186,5.795,19.803,84.0,10.07,36.96
0.19,0.186,5.795,19.825,84.0,10.07,37.05
0.066,0.166,5.793,19.841,84.0,10.07,37.13
-0.099,0.249,5.792,19.852,88.0,10.07,37.26
-0.099,0.228,5.792,19.859,88.0,10.07,37.38
-0.12,0.228,5.792,19.861,88.0,10.07,37.53
-0.095,0.228,5.792,19.857,88.0,10.07,37.55
-0.13,0.186,5.792,19.85,88.0,10.07,37.61
0.031,0.249,5.791,19.84,88.0,10.07,37.83
-0.117,0.145,5.79,19.825,88.0,10.07,38.1
-0.059,0.228,5.79,19.808,88.0,10.07,38.25
0.078,0.207,5.79,19.791,88.0,10.07,38.4
0.138,0.145,5.788,19.774,88.0,10.07,38.55
-0.094,0.269,5.787,19.757,88.0,10.07,38.68
-0.102,0.166,5.787,19.739,88.0,10.07,38.81
-0.095,0.166,5.788,19.724,88.0,10.07,38.92
-0.082,0.207,5.788,19.712,88.0,10.07,38.95
-0.089,0.166,5.788,19.702,88.0,10.07,38.8
-0.064,0.269,5.79,19.694,88.0,10.07,38.75
0.044,0.228,5.788,19.688,88.0,10.07,38.67
-0.022,0.166,5.788,19.682,88.0,10.07,38.57
0.102,0.186,5.79,19.675,88.0,10.07,38.38
0.209,0.228,5.79,19.67,88.0,10.07,38.25
-0.041,0.186,5.79,19.661,88.0,10.07,38.08
-0.074,0.207,5.79,19.651,91.0,10.07,37.89
-0.073,0.207,5.79,19.643,91.0,10.07,37.72
-0.077,0.207,5.79,19.631,91.0,10.07,37.56
-0.112,0.207,5.79,19.62,91.0,10.07,37.26
-0.098,0.166,5.79,19.607,91.0,10.07,37.12
0.129,0.207,5.79,19.593,91.0,10.07,37.1
-0.047,0.124,5.79,19.577,91.0,10.07,37.08
0.043,0.124,5.791,19.559,91.0,10.07,37.03
0.209,0.166,5.788,19.527,91.0,10.07,36.99
0.023,0.228,5.79,19.524,91.0,10.07,36.98
-0.09,0.207,5.79,19.508,90.0,10.07,36.97
-0.079,0.166,5.79,19.491,90.0,10.07,36.97
-0.098,0.166,5.79,19.472,90.0,10.07,36.98
-0.049,0.186,5.79,19.452,90.0,10.07,36.84
-0.116,0.145,5.787,19.436,90.0,10.07,36.75
0.14,0.249,5.787,19.418,90.0,10.07,36.81
-0.13,0.207,5.787,19.404,90.0,10.07,36.92
-0.009,0.228,5.787,19.389,90.0,10.07,36.92
0.14,0.228,5.785,19.376,90.0,10.07,36.93
0.114,0.145,5.785,19.364,90.0,10.07,36.95
-0.101,0.228,5.782,19.352,89.0,10.07,36.98
-0.102,0.166,5.782,19.342,89.0,10.07,37.03
-0.121,0.269,5.781,19.333,89.0,10.07,37.12
-0.125,0.186,5.78,19.32,89.0,10.07,37.12
-0.1,0.207,5.781,19.313,89.0,10.07,37.07
-0.184,0.145,5.78,19.303,89.0,10.07,37.25
0.054,0.207,5.778,19.293,89.0,10.07,37.5
-0.101,0.186,5.777,19.283,89.0,10.07,37.67
-0.001,0.207,5.775,19.27,89.0,10.07,37.8
0.142,0.207,5.773,19.263,87.0,10.07,37.99
-0.054,0.166,5.772,19.252,87.0,10.07,38.16
-0.147,0.249,5.771,19.24,87.0,10.07,38.31
-0.137,0.207,5.77,19.228,87.0,10.07,38.46
-0.145,0.207,5.767,19.216,87.0,10.07,38.63
-0.108,0.249,5.766,19.205,87.0,10.07,38.62
-0.182,0.228,5.765,19.196,87.0,10.07,38.72
0.075,0.269,5.763,19.189,87.0,10.07,38.91
-0.101,0.207,5.761,19.195,87.0,10.07,39.09
0.012,0.124,5.76,19.187,87.0,10.07,39.11
0.176,0.186,5.758,19.176,87.0,10.07,39.07
0.016,0.166,5.757,19.167,87.0,10.07,39.0
-0.094,0.186,5.755,19.156,91.0,10.07,38.88
-0.077,0.228,5.755,19.144,91.0,10.07,38.74
-0.091,0.228,5.752,19.134,91.0,10.07,38.64
-0.059,0.29,5.752,19.124,91.0,10.07,38.37
-0.073,0.207,5.75,19.115,91.0,10.07,38.12
-0.018,0.207,5.747,19.109,91.0,10.07,38.03
0.051,0.207,5.746,19.099,91.0,10.07,37.95
0.0,0.166,5.745,19.091,91.0,10.07,37.8
0.124,0.249,5.745,19.084,91.0,10.07,37.66
0.223,0.166,5.743,19.075,91.0,10.07,37.54
-0.029,0.186,5.741,19.069,91.0,10.07,37.39
-0.053,0.186,5.74,19.061,88.0,10.07,37.3
-0.054,0.269,5.739,19.052,88.0,10.07,37.23
-0.076,0.269,5.736,19.044,88.0,10.07,37.1
-0.023,0.249,5.735,19.038,88.0,10.07,36.88
-0.088,0.166,5.733,19.029,88.0,10.07,36.82
0.169,0.207,5.731,19.022,88.0,10.07,36.88
-0.096,0.166,5.729,19.013,88.0,10.06,36.92
0.025,0.207,5.728,19.004,88.0,10.06,36.91
0.18,0.166,5.726,18.997,88.0,10.07,36.93
0.152,0.228,5.725,18.989,88.0,10.07,36.94
-0.065,0.228,5.723,18.981,86.0,10.07,36.93
-0.059,0.166,5.721,18.974,86.0,10.07,36.96
-0.071,0.228,5.72,18.966,86.0,10.07,36.98
-0.072,0.166,5.719,18.959,86.0,10.07,36.88
-0.044,0.186,5.718,18.954,86.0,10.07,36.73
-0.13,0.145,5.715,18.945,86.0,10.07,36.74
0.111,0.207,5.714,18.939,86.0,10.06,36.87
-0.046,0.249,5.713,18.931,86.0,10.05,36.93
0.044,0.124,5.71,18.926,86.0,10.05,36.99
0.2,0.269,5.709,18.921,86.0,10.05,37.1
0.007,0.207,5.708,18.916,86.0,10.06,37.19
-0.103,0.228,5.705,18.911,87.0,10.07,37.32
-0.101,0.145,5.703,18.905,87.0,10.07,37.47
-0.126,0.166,5.701,18.901,87.0,10.07,37.61
-0.122,0.186,5.7,18.898,87.0,10.07,37.58
-0.097,0.186,5.699,18.895,87.0,10.07,37.72
-0.162,0.166,5.698,18.892,87.0,10.07,37.96
0.058,0.145,5.695,18.889,87.0,10.07,38.18
-0.076,0.166,5.695,18.886,87.0,10.07,38.31
0.031,0.207,5.693,18.884,87.0,10.07,38.52
0.169,0.186,5.693,18.879,87.0,10.07,38.65
-0.036,0.228,5.69,18.876,87.0,10.07,38.75
-0.106,0.186,5.688,18.874,85.0,10.07,38.88
-0.091,0.228,5.686,18.869,85.0,10.07,39.01
-0.108,0.207,5.685,18.867,85.0,10.07,39.11
-0.07,0.166,5.683,18.863,85.0,10.07,38.96
-0.1,0.145,5.681,18.859,85.0,10.07,38.88
0.062,0.269,5.68,18.854,85.0,10.07,38.84
-0.069,0.249,5.678,18.849,85.0,10.07,38.77
-0.006,0.394,5.676,18.844,85.0,10.07,38.57
0.136,0.228,5.675,18.839,85.0,10.06,38.43
0.191,0.166,5.673,18.834,85.0,10.07,38.27
-0.054,0.124,5.671,18.829,85.0,10.08,38.09
-0.064,0.166,5.67,18.824,86.0,10.1,37.93
-0.069,0.186,5.67,18.819,86.0,10.12,37.74
-0.086,0.145,5.669,18.814,86.0,10.12,37.51
-0.032,0.207,5.666,18.809,86.0,10.22,37.23
-0.096,0.207,5.664,18.804,86.0,10.22,37.13
0.159,0.249,5.663,18.8,86.0,10.01,37.09
-0.105,0.207,5.66,18.793,86.0,10.0,37.06
0.016,0.207,5.658,18.787,86.0,10.17,37.01
0.169,0.207,5.658,18.785,86.0,10.54,37.02
0.147,0.207,5.657,18.78,86.0,10.52,36.99
-0.074,0.228,5.654,18.777,86.0,10.56,36.94
-0.07,0.228,5.653,18.775,86.0,10.63,36.96
-0.08,0.166,5.652,18.775,86.0,10.99,37.01
-0.091,0.228,5.651,18.779,86.0,11.62,36.92
-0.037,0.207,5.648,18.786,86.0,13.65,36.76
-0.116,0.166,5.648,18.799,86.0,13.26,36.75
0.116,0.207,5.647,18.816,86.0,11.88,36.84
-0.068,0.166,5.646,18.839,86.0,11.85,36.93
0.023,0.186,5.644,18.868,86.0,11.82,36.96
0.185,0.249,5.643,18.9,86.0,11.72,36.99
0.051,0.166,5.641,18.935,86.0,12.51,37.06
-0.105,0.145,5.639,18.97,86.0,12.64,37.17
-0.105,0.166,5.638,19.006,86.0,12.42,37.32
-0.127,0.186,5.637,19.041,86.0,11.82,37.52
-0.106,0.249,5.636,19.072,86.0,11.24,37.54
-0.134,0.186,5.636,19.101,86.0,11.05,37.62
-0.009,0.228,5.633,19.127,86.0,11.04,37.85
-0.099,0.207,5.633,19.143,86.0,11.13,38.12
-0.065,0.166,5.631,19.157,86.0,11.15,38.28
0.067,0.186,5.629,19.168,86.0,11.2,38.46
0.126,0.249,5.628,19.176,86.0,11.27,38.66
-0.108,0.228,5.626,19.181,86.0,11.22,38.82
-0.127,0.228,5.626,19.181,88.0,11.17,38.98
-0.12,0.166,5.624,19.18,88.0,11.17,39.12
-0.09,0.249,5.623,19.172,88.0,11.13,39.22
-0.126,0.166,5.622,19.167,88.0,11.1,39.18
0.097,0.228,5.621,19.158,88.0,11.05,39.28
-0.132,0.145,5.621,19.145,88.0,10.94,39.37
-0.018,0.186,5.618,19.129,88.0,10.94,39.33
0.134,0.186,5.618,19.113,88.0,10.91,39.2
0.154,0.186,5.617,19.097,88.0,10.9,39.07
-0.071,0.228,5.616,19.078,88.0,10.88,38.94
-0.069,0.207,5.616,19.062,94.0,10.87,38.79
-0.066,0.166,5.614,19.045,94.0,10.84,38.65
-0.06,0.166,5.613,19.028,94.0,10.82,38.44
-0.039,0.166,5.613,19.012,94.0,10.82,38.12
-0.106,0.186,5.611,18.996,94.0,10.78,37.96
0.152,0.166,5.609,18.981,94.0,10.81,37.89
-0.003,0.249,5.614,18.966,94.0,10.85,37.78
0.098,0.228,5.613,18.951,94.0,10.91,37.62
0.251,0.207,5.613,18.937,94.0,11.09,37.51
0.014,0.207,5.613,18.925,94.0,11.37,37.4
-0.049,0.166,5.611,18.912,89.0,11.85,37.3
-0.041,0.166,5.611,18.9,89.0,12.43,37.23
-0.06,0.145,5.611,18.889,89.0,12.75,37.17
-0.009,0.228,5.608,18.878,89.0,12.83,36.94
-0.072,0.186,5.608,18.869,89.0,12.97,36.86
0.184,0.145,5.606,18.86,89.0,13.47,36.91
-0.071,0.207,5.606,18.85,89.0,14.27,36.98
0.043,0.249,5.604,18.84,89.0,15.04,36.96
0.2,0.186,5.603,18.832,89.0,14.35,36.98
0.186,0.145,5.603,18.823,89.0,13.74,36.99
-0.04,0.166,5.601,18.815,89.0,14.13,36.99
-0.035,0.186,5.601,18.808,88.0,14.53,37.0
-0.047,0.166,5.599,18.801,88.0,14.82,37.02
-0.046,0.228,5.598,18.793,88.0,14.55,36.94
-0.028,0.269,5.598,18.787,88.0,14.13,36.77
-0.109,0.207,5.596,18.781,88.0,14.08,36.83
0.132,0.186,5.596,18.775,88.0,14.88,36.98
-0.019,0.207,5.594,18.768,88.0,16.12,37.09
0.074,0.207,5.593,18.762,88.0,16.93,37.19
0.214,0.207,5.593,18.757,88.0,16.63,37.34
-0.01,0.207,5.591,18.752,88.0,15.66,37.49
-0.093,0.186,5.591,18.747,88.0,13.54,37.67
-0.091,0.228,5.589,18.742,88.0,12.37,37.83
-0.105,0.228,5.588,18.737,88.0,11.37,37.98
-0.076,0.435,5.587,18.732,88.0,10.93,37.98
-0.161,0.228,5.586,18.73,88.0,10.71,38.09
0.083,0.228,5.584,18.729,88.0,10.35,38.33
-0.101,0.249,5.583,18.73,88.0,10.48,38.59
0.0,0.186,5.583,18.741,88.0,10.56,38.66
0.161,0.249,5.583,18.766,91.0,10.4,38.73
-0.012,0.186,5.581,18.793,91.0,10.21,38.94
-0.12,0.166,5.581,18.828,91.0,10.33,39.12
-0.096,0.207,5.579,18.866,91.0,10.24,39.18
-0.094,0.186,5.578,18.908,91.0,10.27,39.24
-0.061,0.228,5.578,18.951,91.0,10.62,39.18
-0.14,0.207,5.576,18.999,91.0,10.07,39.08
0.127,0.249,5.576,19.051,91.0,10.04,39.06
-0.043,0.207,5.573,19.099,91.0,10.02,38.95
0.066,0.186,5.573,19.148,91.0,10.11,38.76
0.23,0.166,5.573,19.195,91.0,10.06,38.58
0.021,0.207,5.571,19.236,91.0,10.08,38.41
-0.066,0.456,5.571,19.274,93.0,10.07,38.26
-0.053,0.269,5.569,19.304,93.0,10.07,38.06
-0.039,0.228,5.568,19.332,93.0,10.06,37.85
-0.034,0.228,5.568,19.353,93.0,10.06,37.55
-0.093,0.166,5.567,19.371,93.0,10.05,37.37
0.159,0.186,5.566,19.382,93.0,10.04,37.29
-0.001,0.207,5.565,19.39,93.0,10.04,37.23
0.104,0.186,5.564,19.393,93.0,10.04,37.17
0.239,0.186,5.564,19.393,93.0,10.04,37.15
-0.006,0.228,5.564,19.391,93.0,10.04,37.13
-0.063,0.207,5.564,19.391,94.0,10.04,37.08
-0.054,0.207,5.561,19.395,94.0,10.04,37.07
-0.047,0.166,5.561,19.406,94.0,10.04,37.06
-0.069,0.186,5.561,19.425,94.0,10.04,36.9
-0.069,0.207,5.561,19.455,94.0,10.04,36.87
0.064,0.186,5.561,19.491,94.0,10.04,37.0
-0.045,0.207,5.561,19.533,94.0,10.04,37.09
0.07,0.145,5.561,19.585,94.0,10.04,37.15
0.163,0.145,5.564,19.64,94.0,10.04,37.34
-0.084,0.207,5.564,19.703,94.0,10.04,37.6
-0.122,0.166,5.564,19.767,94.0,10.04,37.81
-0.124,0.207,5.564,19.832,94.0,10.02,38.02
-0.093,0.228,5.564,19.902,94.0,10.02,38.25
-0.165,0.186,5.564,19.962,94.0,10.02,38.39
0.097,0.269,5.564,20.016,94.0,10.02,38.63
-0.192,0.29,5.564,20.064,94.0,10.02,38.95
-0.049,0.166,5.564,20.102,94.0,10.02,39.23
0.108,0.207,5.564,20.133,96.0,10.02,39.41
0.038,0.166,5.566,20.159,96.0,10.02,39.66
-0.14,0.186,5.566,20.182,96.0,10.02,39.87
-0.122,0.166,5.566,20.193,96.0,10.02,40.02
-0.105,0.186,5.566,20.199,96.0,10.02,40.18
-0.095,0.228,5.568,20.199,96.0,10.02,40.25
-0.134,0.249,5.568,20.193,96.0,10.02,40.29
0.094,0.269,5.568,20.183,96.0,10.04,40.32
-0.043,0.166,5.568,20.172,96.0,10.02,40.33
0.078,0.228,5.571,20.157,96.0,10.02,40.26
0.201,0.186,5.571,20.147,96.0,10.02,40.21
-0.029,0.249,5.573,20.141,96.0,10.02,40.15
-0.069,0.145,5.573,20.142,97.0,10.02,40.05
-0.049,0.186,5.576,20.154,97.0,10.02,39.89
-0.046,0.207,5.576,20.179,97.0,10.02,39.73
-0.021,0.311,5.578,20.223,97.0,10.02,39.43
-0.098,0.249,5.578,20.278,97.0,10.02,39.23
0.191,0.228,5.578,20.336,97.0,10.02,39.12
0.006,0.311,5.579,20.402,97.0,10.02,39.01
0.107,0.228,5.581,20.474,97.0,10.02,38.81
0.28,0.145,5.582,20.547,97.0,10.02,38.66
0.045,0.249,5.583,20.62,97.0,10.02,38.49
-0.034,0.331,5.583,20.69,91.0,10.02,38.3
-0.023,0.207,5.586,20.755,91.0,10.02,38.11
-0.037,0.186,5.586,20.812,91.0,10.02,37.98
0.004,0.207,5.587,20.861,91.0,10.02,37.67
-0.037,0.186,5.588,20.905,91.0,10.02,37.53
0.154,0.352,5.588,20.934,91.0,10.02,37.52
0.012,0.207,5.591,20.952,91.0,10.02,37.53
0.052,0.269,5.592,20.965,91.0,10.01,37.46
0.2,0.186,5.593,20.966,91.0,10.01,37.42
0.244,0.207,5.597,20.957,91.0,10.01,37.38
-0.012,0.166,5.598,20.937,91.0,10.01,37.34
-0.021,0.249,5.599,20.911,88.0,10.01,37.33
-0.023,0.228,5.601,20.877,88.0,10.01,37.33
-0.038,0.166,5.602,20.833,88.0,10.01,37.26
-0.045,0.228,5.603,20.786,88.0,10.02,37.09
0.011,0.166,5.604,20.732,88.0,10.01,37.09
-0.053,0.228,5.606,20.675,88.0,10.01,37.18
0.192,0.186,5.607,20.614,88.0,10.01,37.21
-0.022,0.249,5.609,20.553,88.0,10.01,37.22
0.082,0.145,5.612,20.494,88.0,10.01,37.25
0.251,0.166,5.613,20.434,88.0,10.01,37.26
0.155,0.207,5.617,20.375,88.0,10.0,37.25
-0.035,0.186,5.619,20.317,79.0,10.01,37.29
-0.039,0.207,5.622,20.261,79.0,10.01,37.35
-0.057,0.207,5.623,20.208,79.0,10.01,37.45
-0.084,0.228,5.626,20.155,79.0,10.0,37.42
-0.098,0.249,5.626,20.108,79.0,10.0,37.48
-0.071,0.228,5.628,20.06,79.0,10.0,37.68
-0.079,0.166,5.628,20.015,79.0,10.0,37.92
-0.033,0.186,5.629,19.973,79.0,10.0,38.09
0.025,0.207,5.631,19.935,79.0,10.0,38.28
-0.031,0.166,5.633,19.896,79.0,10.0,38.48
0.088,0.228,5.633,19.861,79.0,10.0,38.66
0.186,0.186,5.634,19.827,79.0,10.0,38.83
-0.064,0.166,5.636,19.796,79.0,10.0,39.04
-0.101,0.311,5.636,19.768,74.0,10.0,39.25
-0.1,0.477,5.638,19.739,74.0,10.0,39.4
-0.113,0.414,5.638,19.712,74.0,10.0,39.52
-0.096,0.186,5.638,19.686,74.0,10.0,39.55
-0.072,0.207,5.639,19.661,74.0,10.0,39.67
-0.121,0.29,5.641,19.613,74.0,10.0,39.79
0.116,0.166,5.641,19.611,74.0,10.0,39.78
-0.019,0.186,5.641,19.59,74.0,10.0,39.68
0.101,0.186,5.641,19.569,74.0,10.0,39.6
0.252,0.249,5.641,19.547,74.0,10.0,39.46
0.007,0.124,5.641,19.527,74.0,10.0,39.31
-0.062,0.207,5.641,19.507,83.0,10.0,39.2
-0.044,0.186,5.641,19.488,83.0,10.0,39.05
-0.055,0.186,5.639,19.47,83.0,10.0,38.87
-0.067,0.145,5.638,19.453,83.0,10.0,38.59
-0.022,0.186,5.638,19.436,83.0,10.0,38.36
-0.05,0.186,5.638,19.418,83.0,10.0,38.22
0.116,0.249,5.637,19.404,83.0,10.0,38.11
0.014,0.228,5.636,19.39,83.0,10.0,37.91
0.03,0.124,5.636,19.377,83.0,9.99,37.76
0.17,0.186,5.634,19.364,83.0,10.0,37.66
0.246,0.145,5.633,19.35,83.0,10.0,37.54
-0.024,0.166,5.632,19.34,83.0,10.0,37.45
-0.043,0.166,5.631,19.328,79.0,9.99,37.42
-0.041,0.166,5.631,19.318,79.0,10.0,37.38
-0.06,0.186,5.628,19.312,79.0,9.99,37.3
-0.055,0.166,5.628,19.309,79.0,9.99,37.12
-0.014,0.186,5.628,19.3,79.0,10.0,37.09
-0.094,0.145,5.627,19.292,79.0,9.99,37.17
0.165,0.207,5.626,19.283,79.0,10.0,37.25
-0.009,0.145,5.624,19.277,79.0,10.0,37.24
0.085,0.249,5.623,19.272,79.0,10.0,37.28
0.267,0.186,5.622,19.264,79.0,10.0,37.3
0.076,0.249,5.621,19.258,79.0,10.0,37.3
-0.05,0.186,5.618,19.25,81.0,9.99,37.32
-0.04,0.228,5.618,19.245,81.0,10.0,37.32
-0.056,0.186,5.616,19.238,81.0,10.0,37.35
-0.072,0.186,5.614,19.231,81.0,10.0,37.2
-0.049,0.269,5.613,19.225,81.0,9.99,37.09
-0.044,0.228,5.612,19.216,81.0,10.0,37.12
-0.058,0.228,5.611,19.21,81.0,9.99,37.22
0.099,0.186,5.608,19.202,81.0,10.0,37.24
-0.003,0.166,5.608,19.197,81.0,10.0,37.29
0.1,0.207,5.606,19.191,81.0,10.0,37.36
0.227,0.186,5.603,19.183,81.0,10.0,37.39
-0.025,0.228,5.603,19.176,81.0,10.0,37.5
-0.084,0.207,5.601,19.17,79.0,10.0,37.65
-0.092,0.186,5.598,19.162,79.0,10.0,37.75
-0.122,0.186,5.598,19.155,79.0,10.0,37.81
-0.119,0.207,5.596,19.148,79.0,9.99,37.78
-0.098,0.166,5.594,19.141,79.0,9.99,37.92
-0.17,0.207,5.593,19.135,79.0,9.99,38.16
0.054,0.207,5.591,19.128,79.0,10.0,38.39
-0.092,0.166,5.589,19.121,79.0,9.99,38.53
0.005,0.207,5.588,19.114,79.0,10.0,38.72
0.151,0.166,5.587,19.106,83.0,10.0,38.89
-0.069,0.331,5.584,19.098,83.0,10.0,39.05
-0.144,0.228,5.583,19.091,83.0,10.0,39.23
-0.129,0.186,5.582,19.084,83.0,9.99,39.37
-0.139,0.145,5.581,19.076,83.0,10.0,39.52
-0.097,0.186,5.579,19.069,83.0,10.0,39.51
-0.166,0.186,5.578,19.062,83.0,9.99,39.54
-0.082,0.207,5.576,19.054,83.0,10.0,39.59
-0.061,0.352,5.576,19.047,83.0,10.0,39.62
0.017,0.228,5.573,19.039,83.0,10.0,39.55
0.196,0.207,5.573,19.033,83.0,10.0,39.46
0.036,0.145,5.571,19.027,83.0,10.0,39.33
-0.092,0.186,5.568,19.014,83.0,10.0,39.02
-0.073,0.124,5.569,19.013,83.0,9.99,39.0
-0.083,0.166,5.568,19.008,83.0,10.0,38.86
-0.04,0.228,5.566,19.001,83.0,10.0,38.55
-0.093,0.207,5.566,18.996,83.0,10.0,38.26
0.144,0.269,5.564,18.989,83.0,9.99,38.12
-0.09,0.186,5.564,18.983,83.0,10.0,38.04
0.004,0.186,5.561,18.979,83.0,9.99,37.88
0.154,0.166,5.561,18.976,83.0,10.0,37.74
0.174,0.166,5.561,18.969,83.0,9.99,37.65
-0.062,0.166,5.559,18.964,83.0,9.99,37.56
-0.058,0.228,5.559,18.961,83.0,9.99,37.48
-0.068,0.186,5.559,18.958,83.0,9.99,37.43
-0.04,0.166,5.556,18.954,83.0,9.99,37.35
-0.068,0.249,5.555,18.95,83.0,9.99,37.16
0.018,0.207,5.554,18.946,83.0,9.99,37.15
0.037,0.207,5.552,18.94,83.0,9.99,37.24
-0.005,0.228,5.551,18.936,83.0,9.99,37.3
0.124,0.186,5.551,18.931,83.0,9.99,37.29
0.2,0.207,5.549,18.928,83.0,9.99,37.3
-0.043,0.207,5.547,18.924,83.0,9.99,37.3
-0.068,0.166,5.546,18.921,91.0,9.99,37.35
-0.071,0.207,5.546,18.918,91.0,9.99,37.41
-0.077,0.166,5.545,18.918,91.0,9.99,37.39
-0.044,0.166,5.544,18.916,91.0,9.99,37.21
-0.128,0.207,5.541,18.918,91.0,9.99,37.19
0.12,0.166,5.541,18.916,91.0,9.99,37.23
-0.046,0.166,5.54,18.918,91.0,9.99,37.26
0.039,0.166,5.539,18.92,91.0,9.99,37.28
0.196,0.228,5.539,18.923,91.0,9.99,37.36
0.017,0.228,5.537,18.924,91.0,9.99,37.42
-0.1,0.186,5.536,18.925,89.0,9.97,37.5
-0.099,0.166,5.536,18.929,89.0,9.97,37.63
-0.129,0.186,5.534,18.93,89.0,9.97,37.77
-0.1,0.166,5.534,18.93,89.0,9.97,37.73
-0.164,0.186,5.534,18.929,89.0,9.99,37.85
0.086,0.166,5.531,18.928,89.0,10.0,38.08
-0.207,0.207,5.531,18.928,89.0,10.0,38.23
-0.078,0.228,5.53,18.925,89.0,10.0,38.41
0.073,0.186,5.529,18.924,89.0,10.0,38.66
0.044,0.166,5.529,18.919,89.0,10.0,38.88
-0.159,0.207,5.527,18.914,89.0,10.0,39.08
-0.152,0.207,5.526,18.909,89.0,10.0,39.26
-0.157,0.145,5.525,18.904,89.0,10.0,39.47
-0.115,0.228,5.524,18.897,89.0,10.01,39.53
-0.176,0.186,5.524,18.894,89.0,10.02,39.59
0.088,0.207,5.522,18.887,89.0,10.04,39.74
-0.153,0.269,5.521,18.878,89.0,10.04,39.88
-0.015,0.228,5.52,18.87,89.0,10.02,39.86
0.157,0.186,5.519,18.864,89.0,10.02,39.77
0.052,0.186,5.519,18.857,89.0,10.02,39.65
-0.101,0.207,5.517,18.849,94.0,10.02,39.51
-0.082,0.145,5.516,18.842,94.0,10.02,39.35
-0.093,0.207,5.515,18.835,94.0,10.02,39.23
-0.073,0.331,5.514,18.829,94.0,10.01,38.95
-0.085,0.186,5.514,18.822,94.0,10.02,38.65
-0.036,0.373,5.511,18.817,94.0,10.02,38.5
0.061,0.186,5.511,18.808,94.0,10.01,38.36
-0.014,0.145,5.509,18.802,94.0,10.01,38.18
0.115,0.186,5.509,18.796,94.0,10.0,38.01
0.219,0.186,5.509,18.79,94.0,9.99,37.87
-0.043,0.186,5.507,18.783,94.0,9.99,37.72
-0.068,0.228,5.506,18.777,88.0,9.99,37.62
-0.066,0.186,5.506,18.772,88.0,10.0,37.53
-0.085,0.228,5.504,18.767,88.0,10.01,37.42
-0.036,0.166,5.504,18.762,88.0,10.02,37.19
-0.103,0.186,5.501,18.757,88.0,10.02,37.14
0.156,0.249,5.501,18.75,88.0,10.02,37.21
-0.092,0.228,5.501,18.745,88.0,10.02,37.25
0.018,0.228,5.5,18.74,88.0,10.02,37.22
0.188,0.186,5.499,18.735,88.0,10.02,37.24
0.123,0.166,5.499,18.732,88.0,10.02,37.25
-0.08,0.166,5.497,18.727,87.0,10.02,37.25
-0.069,0.186,5.496,18.723,87.0,10.02,37.26
-0.089,0.186,5.496,18.72,87.0,10.02,37.3
-0.094,0.207,5.496,18.716,87.0,10.02,37.2
-0.044,0.228,5.494,18.713,87.0,10.02,37.05
-0.094,0.228,5.492,18.708,87.0,10.02,37.08
0.145,0.186,5.491,18.703,87.0,10.02,37.17
-0.105,0.186,5.489,18.695,87.0,10.02,37.22
0.009,0.207,5.489,18.697,87.0,10.02,37.23
0.162,0.249,5.489,18.693,87.0,10.02,37.25
0.168,0.166,5.489,18.692,87.0,10.02,37.26
-0.064,0.186,5.486,18.694,87.0,10.02,37.31
-0.071,0.186,5.486,18.695,83.0,10.02,37.39
-0.083,0.166,5.486,18.701,83.0,10.02,37.47
-0.109,0.124,5.484,18.71,83.0,10.02,37.47
-0.119,0.166,5.484,18.722,83.0,10.02,37.4
-0.071,0.207,5.481,18.737,83.0,10.02,37.55
-0.15,0.166,5.481,18.755,83.0,10.02,37.78
0.09,0.186,5.481,18.774,83.0,10.02,37.97
-0.102,0.207,5.48,18.796,83.0,10.02,38.14
0.0,0.166,5.479,18.818,83.0,10.02,38.33
0.167,0.269,5.479,18.839,83.0,10.02,38.52
0.025,0.166,5.479,18.861,83.0,10.02,38.68
-0.119,0.207,5.477,18.881,80.0,10.02,38.88
-0.106,0.166,5.477,18.898,80.0,10.02,39.05
-0.116,0.228,5.477,18.914,80.0,10.02,39.19
-0.099,0.145,5.474,18.927,80.0,10.02,39.2
-0.087,0.207,5.474,18.94,80.0,10.02,39.29
-0.092,0.207,5.474,18.949,80.0,10.02,39.46
0.069,0.228,5.473,18.954,80.0,10.02,39.63
-0.017,0.186,5.472,18.956,80.0,10.02,39.66
0.116,0.228,5.472,18.958,80.0,10.02,39.61
0.242,0.166,5.469,18.956,80.0,10.02,39.53
-0.002,0.124,5.469,18.951,80.0,10.02,39.39
-0.044,0.166,5.469,18.946,87.0,10.02,39.28
-0.029,0.166,5.467,18.939,87.0,10.02,39.16
-0.011,0.186,5.467,18.93,87.0,10.02,39.02
0.001,0.269,5.467,18.92,87.0,10.02,38.72
-0.026,0.166,5.464,18.907,87.0,10.02,38.54
0.015,0.249,5.463,18.896,87.0,10.02,38.43
0.12,0.166,5.462,18.884,87.0,10.02,38.31
0.041,0.228,5.462,18.856,87.0,10.02,37.99
0.171,0.166,5.462,18.854,87.0,10.02,37.97
0.287,0.228,5.462,18.843,87.0,10.02,37.85
0.017,0.186,5.462,18.833,87.0,10.02,37.7
-0.015,0.207,5.462,18.824,84.0,10.02,37.61
-0.012,0.145,5.46,18.819,84.0,10.02,37.52
-0.034,0.166,5.459,18.816,84.0,10.02,37.41
-0.003,0.207,5.459,18.817,84.0,10.02,37.18
-0.027,0.145,5.459,18.822,84.0,10.02,37.12
0.033,0.166,5.459,18.833,84.0,10.02,37.15
0.088,0.207,5.459,18.848,84.0,10.02,37.21
0.034,0.228,5.459,18.867,84.0,10.02,37.2
0.164,0.207,5.457,18.889,84.0,10.02,37.21
0.263,0.249,5.457,18.914,84.0,10.02,37.22
-0.008,0.207,5.457,18.939,84.0,10.02,37.21
-0.04,0.186,5.455,18.964,85.0,10.02,37.25
-0.039,0.249,5.454,18.988,85.0,10.02,37.25
-0.058,0.186,5.454,19.012,85.0,10.02,37.25
-0.05,0.186,5.452,19.035,85.0,10.02,37.05
-0.031,0.186,5.452,19.056,85.0,10.02,37.04
-0.115,0.207,5.452,19.073,85.0,10.02,37.14
0.136,0.311,5.452,19.089,85.0,10.02,37.27
-0.039,0.207,5.452,19.111,85.0,10.02,37.44
0.05,0.166,5.45,19.113,85.0,10.02,37.45
0.218,0.166,5.45,19.119,85.0,10.01,37.57
0.025,0.186,5.449,19.122,85.0,10.02,37.68
-0.1,0.145,5.449,19.119,81.0,10.02,37.87
-0.098,0.207,5.449,19.115,81.0,10.01,38.03
-0.119,0.166,5.447,19.108,81.0,10.02,38.22
-0.123,0.166,5.447,19.098,81.0,10.02,38.2
-0.095,0.228,5.447,19.086,81.0,10.01,38.35
-0.18,0.186,5.444,19.073,81.0,10.02,38.57
0.073,0.269,5.444,19.058,81.0,10.02,38.8
-0.103,0.228,5.444,19.042,81.0,10.02,38.94
0.003,0.145,5.444,19.026,81.0,10.01,39.09
0.178,0.145,5.444,19.011,84.0,10.01,39.22
-0.007,0.166,5.443,18.995,84.0,10.01,39.32
-0.112,0.249,5.442,18.978,84.0,10.02,39.4
-0.089,0.249,5.442,18.966,84.0,10.01,39.43
-0.098,0.166,5.442,18.952,84.0,10.01,39.4
-0.104,0.228,5.442,18.942,84.0,10.01,39.15
-0.048,0.186,5.439,18.934,84.0,10.01,38.98
-0.115,0.145,5.439,18.931,84.0,10.01,38.93
0.141,0.228,5.439,18.931,84.0,10.01,38.87
-0.076,0.29,5.439,18.936,84.0,10.01,38.69
0.037,0.207,5.439,18.945,84.0,10.01,38.56
0.218,0.186,5.439,18.959,84.0,10.01,38.42
0.102,0.207,5.437,18.974,84.0,10.01,38.23
-0.068,0.186,5.437,18.991,82.0,10.01,38.07
-0.058,0.145,5.437,19.007,82.0,10.01,37.94
-0.067,0.186,5.437,19.027,82.0,10.01,37.83
-0.085,0.207,5.437,19.043,82.0,10.01,37.59
-0.047,0.29,5.437,19.061,82.0,10.01,37.37
-0.076,0.29,5.434,19.073,82.0,10.01,37.3
0.043,0.228,5.434,19.083,82.0,10.01,37.31
0.003,0.228,5.433,19.09,82.0,10.01,37.27
-0.002,0.207,5.432,19.095,82.0,10.01,37.25
0.132,0.166,5.432,19.097,82.0,10.01,37.25
0.218,0.249,5.432,19.097,82.0,10.01,37.24
-0.05,0.249,5.429,19.095,82.0,10.01,37.23
-0.077,0.186,5.429,19.09,81.0,10.01,37.26
-0.077,0.249,5.428,19.085,81.0,10.01,37.26
-0.093,0.207,5.427,19.075,81.0,10.01,37.23
-0.101,0.166,5.427,19.064,81.0,10.01,37.08
-0.071,0.186,5.427,19.053,81.0,10.01,37.07
-0.076,0.186,5.427,19.039,81.0,10.01,37.13
-0.061,0.228,5.427,19.026,81.0,10.01,37.21
0.066,0.145,5.427,19.008,81.0,10.01,37.22
-0.026,0.207,5.424,18.995,81.0,10.01,37.29
0.086,0.228,5.424,18.978,81.0,10.01,37.36
0.207,0.166,5.422,18.961,81.0,10.01,37.44
-0.046,0.207,5.42,18.946,81.0,10.01,37.56
-0.103,0.207,5.419,18.933,76.0,10.01,37.72
-0.106,0.145,5.417,18.917,76.0,10.0,37.83
-0.132,0.186,5.417,18.904,76.0,10.0,37.95
-0.15,0.186,5.417,18.89,76.0,10.0,37.92
-0.13,0.186,5.415,18.878,76.0,10.0,38.08
-0.128,0.249,5.414,18.865,76.0,10.0,38.3
-0.123,0.186,5.412,18.853,76.0,10.0,38.52
0.003,0.29,5.412,18.843,76.0,10.0,38.66
-0.079,0.249,5.412,18.832,76.0,10.0,38.85
0.043,0.166,5.41,18.82,76.0,10.0,39.02
0.175,0.269,5.409,18.813,77.0,10.0,39.15
-0.064,0.207,5.409,18.803,77.0,10.0,39.31
-0.109,0.207,5.409,18.796,77.0,10.0,39.47
-0.092,0.228,5.407,18.787,77.0,10.0,39.55
-0.103,0.145,5.407,18.778,77.0,10.0,39.5
-0.097,0.145,5.407,18.77,77.0,10.0,39.26
-0.053,0.207,5.405,18.763,77.0,10.0,39.16
-0.121,0.166,5.404,18.755,77.0,10.0,39.08
0.137,0.228,5.404,18.748,77.0,10.0,39.02
-0.04,0.186,5.404,18.741,77.0,10.0,38.89
0.065,0.124,5.402,18.733,77.0,10.0,38.77
0.251,0.249,5.402,18.727,77.0,10.0,38.62
0.075,0.186,5.399,18.72,77.0,10.0,38.44
-0.057,0.145,5.399,18.714,81.0,10.0,38.29
-0.043,0.166,5.399,18.706,81.0,10.0,38.15
-0.056,0.186,5.398,18.7,81.0,10.0,38.02
-0.068,0.186,5.399,18.694,81.0,10.0,37.75
-0.036,0.249,5.399,18.688,81.0,10.0,37.53
-0.05,0.207,5.399,18.683,81.0,10.0,37.47
0.001,0.166,5.397,18.678,81.0,10.0,37.44
0.077,0.228,5.397,18.673,81.0,10.0,37.37
0.011,0.186,5.397,18.668,81.0,10.0,37.32
0.136,0.186,5.394,18.663,81.0,10.0,37.32
0.252,0.207,5.394,18.659,81.0,10.0,37.28
-0.018,0.186,5.394,18.654,81.0,10.0,37.26
-0.057,0.166,5.392,18.65,80.0,10.0,37.29
-0.05,0.186,5.392,18.645,80.0,10.0,37.27
-0.066,0.228,5.392,18.642,80.0,10.0,37.26
-0.075,0.166,5.39,18.638,80.0,10.0,37.1
-0.023,0.228,5.39,18.635,80.0,10.0,37.07
-0.099,0.207,5.39,18.632,80.0,10.0,37.11
0.138,0.311,5.387,18.628,80.0,10.0,37.2
-0.049,0.166,5.387,18.626,80.0,10.0,37.2
0.049,0.207,5.387,18.623,80.0,10.0,37.24
0.226,0.166,5.385,18.621,80.0,10.0,37.25
0.098,0.186,5.385,18.618,80.0,10.0,37.24
-0.067,0.145,5.383,18.617,81.0,10.0,37.26
-0.061,0.166,5.382,18.617,81.0,10.0,37.3
-0.075,0.186,5.382,18.615,81.0,10.0,37.38
-0.091,0.228,5.38,18.615,81.0,10.0,37.3
-0.045,0.186,5.38,18.613,81.0,10.0,37.27
-0.097,0.207,5.378,18.612,81.0,10.0,37.42
0.141,0.228,5.377,18.612,81.0,10.0,37.62
-0.124,0.166,5.376,18.61,81.0,10.0,37.74
-0.009,0.269,5.375,18.608,81.0,10.0,37.9
0.14,0.207,5.375,18.606,81.0,10.0,38.07
0.149,0.186,5.372,18.603,81.0,10.0,38.22
-0.086,0.249,5.372,18.601,81.0,10.0,38.4
-0.097,0.145,5.372,18.598,81.0,10.0,38.56
-0.105,0.249,5.371,18.595,81.0,10.0,38.74
-0.12,0.207,5.37,18.591,81.0,10.0,38.82
-0.084,0.166,5.37,18.587,81.0,10.0,38.85
-0.155,0.166,5.368,18.583,81.0,10.0,39.04
0.087,0.228,5.367,18.578,81.0,10.0,39.25
-0.11,0.186,5.367,18.573,81.0,10.0,39.44
0.001,0.249,5.366,18.571,81.0,10.0,39.57
0.183,0.207,5.365,18.566,81.0,10.0,39.79
0.031,0.186,5.365,18.561,81.0,10.0,39.98
-0.104,0.186,5.365,18.556,87.0,9.99,40.06
-0.086,0.186,5.365,18.551,87.0,9.99,40.15
-0.091,0.186,5.363,18.546,87.0,10.0,40.18
-0.042,0.228,5.362,18.541,87.0,10.0,39.99
-0.099,0.228,5.362,18.539,87.0,10.0,39.79
0.179,0.228,5.362,18.534,87.0,10.0,39.68
-0.102,0.124,5.362,18.529,87.0,10.0,39.63
0.045,0.269,5.361,18.524,87.0,10.0,39.5
0.226,0.186,5.36,18.52,87.0,10.0,39.39
0.174,0.166,5.36,18.516,87.0,9.99,39.27
-0.026,0.207,5.36,18.511,87.0,10.0,39.11
-0.015,0.207,5.357,18.509,90.0,10.0,38.94
-0.016,0.269,5.357,18.506,90.0,10.0,38.82
0.009,0.228,5.357,18.503,90.0,10.0,38.56
-0.003,0.166,5.355,18.499,90.0,10.0,38.24
0.016,0.228,5.355,18.496,90.0,10.0,38.11
0.168,0.249,5.355,18.491,90.0,10.0,38.04
0.056,0.186,5.352,18.488,90.0,10.0,37.89
0.177,0.145,5.352,18.484,90.0,10.0,37.74
0.297,0.145,5.352,18.479,90.0,10.0,37.66
0.029,0.186,5.35,18.475,90.0,10.0,37.54
-0.007,0.29,5.35,18.474,89.0,9.99,37.45
-0.004,0.207,5.35,18.469,89.0,10.0,37.4
-0.018,0.166,5.347,18.464,89.0,10.0,37.32
-0.034,0.166,5.347,18.461,89.0,9.99,37.11
-0.058,0.166,5.345,18.459,89.0,10.0,37.06
0.222,0.269,5.345,18.454,89.0,10.0,37.09
-0.029,0.207,5.343,18.449,89.0,10.0,37.15
0.078,0.269,5.343,18.446,89.0,9.99,37.15
0.251,0.145,5.342,18.438,89.0,10.0,37.19
0.184,0.311,5.341,18.437,89.0,9.99,37.19
-0.022,0.207,5.34,18.433,89.0,9.99,37.2
-0.014,0.207,5.34,18.429,87.0,9.99,37.22
-0.024,0.207,5.34,18.424,87.0,10.0,37.24
-0.043,0.186,5.337,18.422,87.0,10.0,37.16
-0.007,0.249,5.337,18.418,87.0,10.0,36.99
-0.038,0.186,5.337,18.414,87.0,9.99,37.02
0.062,0.269,5.335,18.409,87.0,10.0,37.12
0.035,0.207,5.335,18.406,87.0,10.0,37.16
0.028,0.228,5.335,18.403,87.0,9.99,37.17
0.158,0.186,5.333,18.399,87.0,9.99,37.2
0.243,0.186,5.332,18.394,87.0,10.0,37.21
-0.015,0.207,5.332,18.392,87.0,9.99,37.21
-0.042,0.186,5.332,18.388,82.0,9.99,37.24
-0.043,0.186,5.332,18.384,82.0,9.99,37.24
-0.067,0.228,5.33,18.381,82.0,10.0,37.24
-0.078,0.166,5.33,18.378,82.0,10.0,37.08
-0.03,0.207,5.327,18.374,82.0,9.99,37.16
-0.106,0.207,5.327,18.369,82.0,9.99,37.32
-0.087,0.207,5.326,18.367,82.0,10.0,37.49
-0.056,0.186,5.325,18.363,82.0,9.99,37.6
0.005,0.166,5.325,18.361,82.0,9.99,37.74
0.164,0.311,5.322,18.357,82.0,9.99,37.89
0.074,0.207,5.322,18.354,82.0,9.99,38.04
-0.111,0.207,5.32,18.347,82.0,10.0,38.38
-0.111,0.207,5.32,18.347,82.0,9.99,38.4
-0.128,0.29,5.32,18.345,82.0,9.99,38.56
-0.152,0.228,5.32,18.342,82.0,9.99,38.59
-0.166,0.228,5.317,18.34,82.0,9.99,38.68
-0.172,0.166,5.317,18.337,82.0,10.0,38.87
0.064,0.186,5.316,18.334,82.0,9.99,39.13
-0.187,0.166,5.315,18.331,82.0,9.99,39.31
-0.07,0.145,5.315,18.329,82.0,9.99,39.47
0.075,0.124,5.313,18.324,82.0,9.99,39.74
0.115,0.228,5.312,18.324,82.0,9.99,39.76
-0.121,0.166,5.312,18.321,82.0,9.99,39.89
-0.132,0.166,5.312,18.319,82.0,9.99,40.07
-0.123,0.207,5.311,18.317,82.0,9.99,40.18
-0.129,0.228,5.31,18.315,82.0,9.99,40.21
-0.083,0.207,5.308,18.312,82.0,9.99,40.14
-0.147,0.166,5.307,18.311,82.0,9.99,40.15
0.102,0.207,5.307,18.307,82.0,9.99,40.15
-0.087,0.207,5.306,18.305,82.0,9.99,40.11
0.035,0.166,5.305,18.302,82.0,9.99,40.01
0.219,0.29,5.305,18.3,82.0,9.99,39.92
0.07,0.166,5.304,18.296,82.0,9.99,39.79
-0.071,0.124,5.304,18.294,87.0,9.99,39.66
-0.055,0.249,5.303,18.29,87.0,9.99,39.55
-0.068,0.186,5.303,18.287,87.0,9.99,39.46
-0.078,0.228,5.303,18.285,87.0,10.0,39.2
-0.017,0.166,5.301,18.282,87.0,10.0,38.96
-0.081,0.228,5.3,18.28,87.0,9.99,38.84
0.206,0.228,5.3,18.277,87.0,9.99,38.74
-0.054,0.186,5.3,18.275,87.0,9.99,38.6
0.066,0.166,5.298,18.273,87.0,9.99,38.45
0.249,0.249,5.298,18.27,87.0,9.99,38.31
0.175,0.249,5.298,18.268,87.0,9.99,38.13
-0.025,0.166,5.296,18.264,83.0,9.99,37.98
-0.013,0.228,5.295,18.262,83.0,9.99,37.85
-0.02,0.228,5.295,18.26,83.0,9.99,37.74
-0.035,0.311,5.295,18.258,83.0,9.99,37.5
-0.008,0.166,5.293,18.257,83.0,9.99,37.28
-0.011,0.331,5.293,18.255,83.0,9.99,37.23
-0.01,0.207,5.291,18.254,83.0,9.99,37.25
0.154,0.228,5.29,18.254,83.0,10.0,37.22
0.041,0.207,5.29,18.253,83.0,9.99,37.21
0.152,0.166,5.289,18.253,83.0,9.99,37.22
0.29,0.186,5.288,18.254,83.0,9.99,37.21
0.023,0.166,5.288,18.254,83.0,9.99,37.21
-0.027,0.207,5.288,18.254,80.0,10.0,37.25
-0.025,0.186,5.286,18.255,80.0,9.99,37.25
-0.044,0.186,5.285,18.257,80.0,9.99,37.23
-0.055,0.207,5.285,18.257,80.0,9.99,37.07
-0.011,0.166,5.285,18.258,80.0,9.99,37.04
-0.049,0.186,5.283,18.257,80.0,9.99,37.1
0.115,0.207,5.283,18.257,80.0,9.99,37.18
-0.028,0.166,5.283,18.254,80.0,9.99,37.19
0.022,0.124,5.283,18.253,80.0,9.99,37.21
0.152,0.207,5.283,18.25,80.0,9.99,37.24
0.223,0.228,5.28,18.249,80.0,9.99,37.24
-0.038,0.145,5.28,18.247,80.0,9.99,37.29
-0.065,0.186,5.28,18.243,78.0,9.99,37.35
-0.074,0.145,5.28,18.239,78.0,9.99,37.4
-0.096,0.166,5.278,18.235,78.0,9.99,37.44
-0.109,0.145,5.278,18.23,78.0,9.99,37.36
-0.101,0.166,5.275,18.228,78.0,9.99,37.5
-0.077,0.207,5.275,18.223,78.0,9.99,37.69
-0.151,0.207,5.275,18.218,78.0,9.99,37.89
0.084,0.228,5.273,18.213,78.0,9.99,38.02
-0.073,0.186,5.273,18.209,78.0,9.99,38.22
0.023,0.228,5.271,18.203,78.0,9.99,38.39
0.18,0.186,5.27,18.2,75.0,9.99,38.55
-0.019,0.207,5.27,18.198,75.0,9.99,38.74
-0.123,0.186,5.27,18.194,75.0,9.99,38.96
-0.118,0.166,5.269,18.192,75.0,9.99,39.11
-0.14,0.228,5.268,18.188,75.0,9.99,39.27
-0.144,0.207,5.268,18.186,75.0,9.99,39.29
-0.108,0.166,5.268,18.182,75.0,9.99,39.39
-0.18,0.249,5.265,18.18,75.0,9.99,39.58
0.081,0.186,5.265,18.178,75.0,9.99,39.78
-0.082,0.186,5.265,18.176,75.0,9.99,39.89
0.034,0.124,5.265,18.173,75.0,9.99,39.99
0.204,0.207,5.263,18.171,75.0,9.99,40.06
0.007,0.228,5.263,18.167,75.0,9.99,40.0
-0.098,0.166,5.263,18.165,83.0,9.99,39.95
-0.083,0.166,5.263,18.161,83.0,9.99,39.85
-0.092,0.228,5.261,18.158,83.0,9.99,39.75
-0.088,0.269,5.26,18.156,83.0,9.99,39.5
-0.045,0.145,5.258,18.153,83.0,9.99,39.32
-0.119,0.331,5.258,18.151,83.0,9.99,39.26
-0.005,0.601,5.258,18.148,83.0,9.99,39.19
-0.004,0.166,5.258,18.143,83.0,9.99,39.08
0.074,0.166,5.258,18.141,83.0,9.99,38.98
0.259,0.207,5.256,18.138,83.0,9.99,38.86
0.075,0.166,5.255,18.136,83.0,9.99,38.69
-0.051,0.228,5.255,18.132,83.0,9.99,38.44
-0.038,0.207,5.254,18.132,64.0,9.99,38.43
-0.051,0.207,5.253,18.131,64.0,9.99,38.3
-0.037,0.207,5.253,18.13,64.0,9.99,38.0
-0.017,0.228,5.253,18.13,64.0,9.99,37.79
-0.087,0.207,5.253,18.13,64.0,9.99,37.71
0.188,0.228,5.253,18.13,64.0,9.99,37.69
0.019,0.29,5.25,18.13,64.0,9.99,37.6
0.12,0.186,5.25,18.13,64.0,9.99,37.52
0.29,0.166,5.25,18.13,64.0,9.99,37.47
0.056,0.145,5.25,18.13,64.0,9.99,37.4
-0.029,0.228,5.25,18.13,64.0,9.99,37.37
-0.017,0.166,5.248,18.128,64.0,9.99,37.34
-0.03,0.124,5.248,18.127,64.0,9.99,37.33
0.018,0.145,5.248,18.126,64.0,9.99,37.17
-0.052,0.228,5.248,18.126,64.0,9.99,37.09
0.211,0.249,5.246,18.123,64.0,9.99,37.13
-0.042,0.207,5.245,18.121,64.0,9.99,37.22
0.073,0.186,5.245,18.12,64.0,9.99,37.24
0.245,0.207,5.245,18.118,64.0,9.99,37.26
0.177,0.269,5.244,18.116,64.0,9.99,37.29
-0.028,0.228,5.243,18.115,64.0,9.99,37.28
-0.027,0.249,5.243,18.112,88.0,9.99,37.31
-0.037,0.186,5.243,18.11,88.0,9.99,37.37
0.003,0.228,5.243,18.108,88.0,9.99,37.33
-0.07,0.207,5.243,18.107,88.0,9.99,37.27
0.192,0.311,5.243,18.106,88.0,9.99,37.39
-0.083,0.207,5.241,18.103,88.0,9.99,37.58
0.025,0.166,5.24,18.102,88.0,9.99,37.72
0.184,0.124,5.24,18.102,88.0,9.99,37.85
0.115,0.166,5.238,18.102,88.0,9.99,38.03
-0.091,0.186,5.238,18.103,93.0,9.99,38.2
-0.094,0.145,5.238,18.106,93.0,9.99,38.35
-0.095,0.186,5.236,18.11,93.0,9.99,38.54
-0.093,0.228,5.235,18.113,93.0,9.99,38.65
-0.177,0.207,5.235,18.118,93.0,9.99,38.72
0.068,0.249,5.235,18.126,93.0,9.99,38.92
-0.097,0.166,5.234,18.131,93.0,9.99,39.19
0.001,0.186,5.233,18.137,93.0,9.99,39.38
0.149,0.186,5.233,18.144,97.0,9.99,39.51
-0.074,0.228,5.233,18.153,97.0,9.99,39.69
-0.154,0.228,5.231,18.162,97.0,9.99,39.82
-0.143,0.166,5.23,18.172,97.0,9.99,39.93
-0.106,0.166,5.23,18.181,97.0,9.99,40.07
0.12,0.269,5.229,18.189,97.0,9.99,40.04
0.071,0.207,5.228,18.196,97.0,9.99,40.02
-0.197,0.207,5.228,18.205,97.0,9.99,40.04
-0.051,0.207,5.226,18.213,97.0,9.99,40.07
0.116,0.228,5.225,18.216,97.0,9.99,39.97
0.055,0.186,5.224,18.222,97.0,9.99,39.83
-0.13,0.249,5.223,18.222,97.0,9.99,39.81
-0.119,0.186,5.223,18.224,97.0,9.99,39.68
-0.116,0.207,5.223,18.224,97.0,9.99,39.57
-0.073,0.166,5.223,18.224,97.0,9.99,39.4
-0.137,0.166,5.22,18.222,97.0,9.99,39.16
0.141,0.186,5.22,18.22,97.0,9.99,39.08
-0.125,0.166,5.22,18.218,97.0,9.99,39.06
0.0,0.186,5.22,18.213,97.0,9.99,38.97
0.184,0.228,5.218,18.21,97.0,9.99,38.85
0.113,0.145,5.218,18.203,97.0,9.99,38.76
-0.078,0.124,5.218,18.198,93.0,9.99,38.61
-0.066,0.186,5.215,18.193,93.0,9.99,38.46
-0.071,0.186,5.218,18.186,93.0,9.99,38.34
-0.083,0.145,5.215,18.181,93.0,9.99,38.07
-0.025,0.166,5.215,18.176,93.0,9.99,37.8
-0.085,0.166,5.215,18.167,93.0,9.99,37.69
0.201,0.269,5.215,18.159,93.0,9.99,37.65
-0.071,0.228,5.215,18.153,93.0,9.99,37.54
0.048,0.207,5.213,18.147,93.0,9.99,37.46
0.227,0.207,5.213,18.141,93.0,9.99,37.43
0.188,0.207,5.213,18.133,93.0,9.99,37.37
-0.029,0.186,5.212,18.127,93.0,9.99,37.35
-0.025,0.249,5.211,18.121,84.0,9.99,37.34
-0.033,0.207,5.211,18.114,84.0,9.99,37.35
-0.05,0.186,5.211,18.108,84.0,9.99,37.23
-0.055,0.207,5.209,18.103,84.0,9.99,37.08
-0.053,0.207,5.208,18.096,84.0,10.0,37.1
-0.049,0.249,5.208,18.089,84.0,9.99,37.19
-0.044,0.166,5.207,18.084,84.0,9.99,37.21
-0.025,0.186,5.206,18.079,84.0,10.0,37.22
-0.013,0.207,5.206,18.071,84.0,9.99,37.25
-0.01,0.207,5.206,18.066,84.0,10.0,37.27
0.213,0.228,5.203,18.061,84.0,9.99,37.29
0.061,0.145,5.204,18.056,84.0,9.99,37.3
0.157,0.166,5.203,18.051,84.0,9.99,37.32
0.32,0.311,5.203,18.046,84.0,9.99,37.34
0.079,0.186,5.202,18.041,84.0,9.99,37.39
-0.009,0.228,5.201,18.036,60.0,9.99,37.47
-0.015,0.207,5.201,18.031,60.0,9.99,37.53
-0.036,0.166,5.198,18.026,60.0,9.99,37.55
-0.061,0.166,5.198,18.021,60.0,9.99,37.45
-0.074,0.166,5.198,18.016,60.0,9.99,37.58
-0.081,0.186,5.197,18.011,60.0,9.99,37.8
-0.081,0.186,5.196,18.008,60.0,9.99,38.0
-0.051,0.228,5.196,18.004,60.0,9.99,38.14
-0.088,0.166,5.196,18.001,60.0,9.99,38.33
0.174,0.228,5.197,17.997,60.0,9.99,38.5
-0.054,0.228,5.196,17.992,60.0,9.99,38.65
0.053,0.186,5.194,17.988,60.0,9.99,38.82
0.227,0.145,5.194,17.986,60.0,9.99,39.02
0.13,0.228,5.193,17.982,60.0,9.99,39.21
-0.077,0.269,5.193,17.978,64.0,9.99,39.4
-0.079,0.186,5.191,17.974,64.0,9.99,39.53
-0.083,0.228,5.191,17.971,64.0,9.99,39.69
-0.102,0.207,5.191,17.968,64.0,9.99,39.67
-0.104,0.186,5.189,17.964,64.0,9.99,39.69
-0.1,0.166,5.188,17.959,64.0,10.0,39.79
-0.06,0.207,5.188,17.954,64.0,9.99,39.88
-0.089,0.186,5.187,17.953,64.0,9.99,39.89
0.187,0.249,5.186,17.951,64.0,9.99,39.84
-0.074,0.186,5.186,17.948,64.0,10.0,39.77
0.062,0.186,5.186,17.944,64.0,9.99,39.67
0.249,0.186,5.183,17.942,64.0,9.99,39.56
0.181,0.228,5.183,17.939,64.0,9.99,39.51
-0.041,0.207,5.183,17.936,71.0,9.99,39.46
-0.04,0.269,5.183,17.934,71.0,10.0,39.33
-0.035,0.269,5.181,17.932,71.0,9.99,39.23
-0.049,0.228,5.181,17.928,71.0,10.0,39.02
-0.054,0.207,5.181,17.926,71.0,10.0,38.75
-0.052,0.228,5.181,17.922,71.0,9.99,38.62
-0.046,0.186,5.181,17.92,71.0,10.0,38.51
-0.01,0.249,5.181,17.916,71.0,10.0,38.37
-0.029,0.228,5.181,17.914,71.0,10.0,38.22
0.26,0.269,5.181,17.911,71.0,10.0,38.12
0.0,0.145,5.181,17.907,71.0,10.0,37.98
0.106,0.166,5.181,17.905,71.0,9.99,37.84
0.29,0.145,5.181,17.902,71.0,10.0,37.77
0.24,0.228,5.178,17.899,71.0,10.0,37.7
0.0,0.186,5.179,17.896,71.0,9.99,37.63
-0.002,0.207,5.178,17.892,66.0,10.0,37.56
-0.005,0.145,5.177,17.89,66.0,10.0,37.53
-0.022,0.166,5.176,17.886,66.0,10.0,37.38
-0.031,0.166,5.176,17.882,66.0,10.0,37.2
-0.034,0.186,5.173,17.877,66.0,10.0,37.18
-0.028,0.145,5.173,17.875,66.0,10.0,37.23
-0.001,0.207,5.173,17.872,66.0,10.0,37.26
-0.047,0.186,5.172,17.869,66.0,9.99,37.26
0.229,0.166,5.171,17.866,66.0,9.99,37.3
0.038,0.166,5.171,17.862,66.0,10.0,37.3
0.124,0.311,5.169,17.859,66.0,9.99,37.3
0.319,0.249,5.168,17.857,66.0,9.99,37.31
0.14,0.207,5.168,17.855,66.0,10.0,37.33
-0.024,0.145,5.168,17.852,67.0,10.0,37.37
-0.021,0.207,5.168,17.85,67.0,9.99,37.35
-0.033,0.166,5.166,17.846,67.0,9.99,37.38
-0.053,0.166,5.166,17.844,67.0,10.0,37.22
-0.064,0.186,5.166,17.841,67.0,10.0,37.12
-0.069,0.207,5.163,17.836,67.0,9.99,37.14
-0.049,0.186,5.163,17.833,67.0,9.99,37.28
-0.06,0.166,5.162,17.83,67.0,9.99,37.37
0.16,0.207,5.161,17.828,67.0,9.99,37.45
-0.044,0.186,5.161,17.825,67.0,9.99,37.57
0.023,0.186,5.161,17.823,67.0,9.99,37.67
0.159,0.207,5.159,17.82,67.0,10.0,37.79
0.237,0.207,5.158,17.819,67.0,10.0,37.96
-0.041,0.228,5.158,17.817,67.0,9.99,38.14
-0.077,0.186,5.157,17.815,68.0,9.99,38.28
-0.081,0.228,5.156,17.814,68.0,10.0,38.43
-0.1,0.186,5.156,17.813,68.0,10.0,38.53
-0.115,0.166,5.156,17.812,68.0,10.0,38.55
-0.092,0.145,5.154,17.809,68.0,10.0,38.74
-0.112,0.228,5.153,17.808,68.0,10.0,38.98
0.166,0.311,5.153,17.807,68.0,10.0,39.24
-0.144,0.186,5.152,17.805,68.0,10.0,39.38
-0.001,0.29,5.152,17.803,68.0,10.0,39.56
0.161,0.207,5.151,17.802,68.0,10.0,39.7
0.195,0.166,5.151,17.799,68.0,10.0,39.83
-0.063,0.207,5.149,17.797,68.0,10.0,39.97
-0.078,0.249,5.148,17.794,78.0,10.0,40.1
-0.069,0.186,5.148,17.793,78.0,10.0,40.11
-0.077,0.186,5.148,17.79,78.0,10.0,39.97
-0.032,0.166,5.146,17.789,78.0,10.0,39.76
-0.101,0.166,5.146,17.785,78.0,10.0,39.67
0.158,0.207,5.146,17.783,78.0,10.0,39.63
-0.037,0.145,5.146,17.782,78.0,10.0,39.56
0.075,0.186,5.144,17.779,78.0,10.0,39.48
0.274,0.207,5.143,17.778,78.0,10.0,39.38
0.126,0.166,5.143,17.775,78.0,10.0,39.27
-0.035,0.166,5.143,17.772,86.0,10.0,39.14
-0.022,0.145,5.142,17.769,86.0,10.0,39.01
-0.029,0.207,5.141,17.767,86.0,10.0,38.9
-0.019,0.186,5.141,17.764,86.0,10.0,38.61
0.0,0.228,5.141,17.762,86.0,10.0,38.36
-0.068,0.249,5.141,17.758,86.0,10.0,38.23
0.209,0.186,5.139,17.755,86.0,10.01,38.17
0.034,0.249,5.138,17.754,86.0,10.01,38.04
0.132,0.228,5.138,17.752,86.0,10.01,37.94
0.316,0.249,5.137,17.752,86.0,10.01,37.85
0.076,0.145,5.136,17.748,86.0,10.01,37.73
-0.022,0.228,5.137,17.745,86.0,10.0,37.63
-0.016,0.186,5.138,17.744,86.0,10.0,37.54
-0.031,0.186,5.138,17.742,86.0,10.0,37.48
-0.011,0.166,5.137,17.74,86.0,10.0,37.27
-0.018,0.186,5.136,17.737,86.0,10.0,37.18
-0.035,0.228,5.136,17.733,86.0,10.0,37.19
0.15,0.145,5.136,17.731,86.0,10.0,37.28
0.029,0.166,5.136,17.728,86.0,10.0,37.3
0.139,0.145,5.136,17.726,86.0,10.01,37.31
0.296,0.166,5.136,17.725,86.0,10.01,37.31
0.031,0.145,5.136,17.721,86.0,10.0,37.3
-0.032,0.228,5.133,17.717,85.0,10.0,37.36
-0.031,0.166,5.133,17.716,85.0,10.01,37.35
-0.049,0.249,5.133,17.713,85.0,10.02,37.33
-0.036,0.207,5.133,17.711,85.0,10.02,37.17
-0.026,0.207,5.133,17.708,85.0,10.01,37.14
-0.091,0.249,5.133,17.703,85.0,10.0,37.16
0.137,0.207,5.132,17.701,85.0,10.0,37.26
-0.01,1.243,5.131,17.698,85.0,10.0,37.31
0.08,0.394,5.131,17.696,85.0,9.99,37.4
0.238,0.228,5.131,17.693,85.0,9.99,37.47
0.011,0.186,5.131,17.69,85.0,9.99,37.53
-0.08,0.186,5.128,17.687,83.0,9.99,37.65
-0.083,0.207,5.128,17.683,83.0,10.0,37.75
-0.11,0.186,5.127,17.681,83.0,10.0,37.94
-0.13,0.207,5.126,17.677,83.0,10.0,38.01
-0.089,0.207,5.126,17.676,83.0,10.0,38.12
-0.147,0.166,5.125,17.672,83.0,10.0,38.3
0.108,0.207,5.124,17.67,83.0,10.0,38.49
-0.191,0.207,5.124,17.667,83.0,10.0,38.57
-0.059,0.207,5.124,17.666,83.0,10.0,38.72
0.083,0.228,5.121,17.663,80.0,10.0,38.87
0.106,0.166,5.121,17.66,80.0,10.01,38.98
-0.125,0.207,5.121,17.657,80.0,10.01,39.15
-0.133,0.166,5.12,17.655,80.0,10.01,39.31
-0.137,0.228,5.119,17.653,80.0,10.01,39.43
-0.154,0.269,5.119,17.65,80.0,10.01,39.45
-0.102,0.207,5.117,17.648,80.0,10.01,39.42
-0.161,0.207,5.116,17.645,80.0,10.01,39.51
0.1,0.249,5.116,17.641,80.0,10.01,39.5
-0.156,0.186,5.116,17.64,80.0,10.01,39.44
-0.019,0.145,5.115,17.638,80.0,10.01,39.37
0.152,0.186,5.114,17.635,85.0,10.0,39.27
0.094,0.166,5.114,17.633,85.0,10.0,39.17
-0.103,0.186,5.114,17.63,85.0,10.0,39.07
-0.094,0.145,5.111,17.628,85.0,10.0,38.96
-0.098,0.186,5.111,17.626,85.0,10.0,38.86
-0.115,0.166,5.111,17.624,85.0,10.0,38.62
-0.089,0.207,5.111,17.621,85.0,10.01,38.34
-0.075,0.166,5.109,17.619,85.0,10.01,38.26
-0.102,0.166,5.109,17.616,85.0,10.01,38.16
0.124,0.186,5.109,17.614,85.0,10.01,38.05
-0.019,0.166,5.109,17.611,85.0,10.01,37.94
0.084,0.186,5.106,17.61,85.0,10.01,37.85
0.246,0.166,5.106,17.608,85.0,10.01,37.73
0.011,0.228,5.106,17.606,85.0,10.01,37.63
-0.058,0.166,5.105,17.603,80.0,10.01,37.59
-0.052,0.207,5.104,17.603,80.0,10.01,37.53
-0.073,0.186,5.104,17.6,80.0,10.01,37.47
-0.085,0.145,5.102,17.598,80.0,10.01,37.25
-0.067,0.145,5.101,17.594,80.0,10.01,37.19
-0.033,0.145,5.101,17.593,80.0,10.01,37.22
-0.107,0.104,5.1,17.589,80.0,10.01,37.31
0.148,0.228,5.099,17.586,80.0,10.01,37.32
-0.012,0.145,5.099,17.585,80.0,10.01,37.34
0.078,0.186,5.099,17.583,80.0,10.01,37.35
0.252,0.166,5.096,17.58,80.0,10.01,37.35
0.069,0.228,5.096,17.579,80.0,10.01,37.35
-0.049,0.228,5.096,17.578,76.0,10.01,37.38
-0.042,0.166,5.096,17.574,76.0,10.01,37.37
-0.061,0.145,5.096,17.573,76.0,10.01,37.38
-0.079,0.186,5.094,17.57,76.0,10.01,37.21
-0.044,0.228,5.094,17.569,76.0,10.01,37.14
-0.049,0.166,5.094,17.566,76.0,10.01,37.17
-0.024,0.186,5.091,17.563,76.0,10.01,37.28
0.069,0.207,5.091,17.562,76.0,10.01,37.3
0.0,0.186,5.091,17.559,76.0,10.01,37.32
0.111,0.186,5.091,17.557,76.0,10.01,37.35
0.238,0.166,5.091,17.553,76.0,10.01,37.35
-0.012,0.145,5.089,17.552,76.0,10.01,37.4
-0.067,0.311,5.089,17.549,79.0,10.01,37.48
-0.072,0.207,5.089,17.548,79.0,10.01,37.53
-0.099,0.249,5.089,17.546,79.0,10.01,37.58
-0.112,0.145,5.089,17.543,79.0,10.01,37.49
-0.069,0.207,5.087,17.542,79.0,10.0,37.61
-0.148,0.166,5.086,17.538,79.0,10.01,37.81
0.087,0.228,5.086,17.536,79.0,10.01,38.01
-0.118,0.207,5.085,17.536,79.0,10.01,38.14
-0.014,0.186,5.084,17.533,79.0,10.01,38.33
0.15,0.207,5.084,17.531,81.0,10.01,38.49
0.045,0.269,5.082,17.529,81.0,10.01,38.66
-0.126,0.207,5.081,17.528,81.0,10.01,38.84
-0.124,0.228,5.081,17.528,81.0,10.01,39.02
-0.143,0.145,5.081,17.526,81.0,10.01,39.18
-0.163,0.186,5.079,17.526,81.0,10.01,39.2
-0.169,0.166,5.079,17.524,81.0,10.01,39.29
0.103,0.207,5.079,17.522,81.0,10.01,39.48
-0.197,0.145,5.079,17.521,81.0,10.01,39.7
-0.053,0.186,5.079,17.518,81.0,10.01,39.83
0.103,0.166,5.077,17.516,89.0,10.01,39.99
0.128,0.186,5.077,17.516,89.0,10.01,40.0
-0.104,0.249,5.076,17.514,89.0,10.01,39.97
-0.11,0.207,5.076,17.512,89.0,10.01,39.89
-0.106,0.207,5.076,17.511,89.0,10.01,39.8
-0.096,0.207,5.076,17.509,89.0,10.01,39.64
-0.09,0.207,5.076,17.508,89.0,10.01,39.38
-0.106,0.166,5.076,17.506,89.0,10.01,39.29
0.073,0.207,5.076,17.503,89.0,10.01,39.24
-0.034,0.145,5.075,17.502,89.0,10.01,39.16
0.08,0.186,5.074,17.501,89.0,10.01,39.0
0.231,0.228,5.074,17.499,89.0,10.01,38.89
-0.017,0.249,5.071,17.497,89.0,10.01,38.73
-0.07,0.207,5.071,17.496,90.0,10.01,38.55
-0.061,0.166,5.071,17.493,90.0,10.01,38.38
-0.061,0.124,5.071,17.491,90.0,10.01,38.21
-0.036,0.166,5.07,17.491,90.0,10.01,37.88
-0.121,0.373,5.069,17.488,90.0,10.01,37.71
0.159,0.207,5.069,17.486,90.0,10.01,37.64
-0.024,0.228,5.067,17.483,90.0,10.01,37.6
0.064,0.249,5.066,17.483,90.0,10.01,37.51
0.243,0.207,5.066,17.482,90.0,10.01,37.46
0.038,0.269,5.066,17.481,90.0,10.01,37.43
-0.073,0.228,5.065,17.48,90.0,10.01,37.4
-0.062,0.207,5.064,17.479,90.0,10.01,37.36
-0.076,0.186,5.064,17.479,90.0,10.01,37.37
-0.035,0.249,5.062,17.477,90.0,10.01,37.22
-0.09,0.186,5.061,17.479,90.0,10.01,37.13
0.139,0.228,5.061,17.477,90.0,10.01,37.18
-0.081,0.186,5.061,17.479,90.0,10.01,37.27
0.006,0.228,5.061,17.479,90.0,10.01,37.29
0.15,0.269,5.061,17.48,90.0,10.01,37.31
0.193,0.207,5.06,17.481,90.0,10.01,37.32
-0.059,0.186,5.059,17.482,90.0,10.01,37.34
-0.074,0.249,5.059,17.484,88.0,10.01,37.4
-0.084,0.145,5.059,17.487,88.0,10.01,37.46
-0.108,0.228,5.057,17.489,88.0,10.01,37.48
-0.088,0.166,5.056,17.492,88.0,10.01,37.41
-0.092,0.207,5.056,17.493,88.0,10.01,37.56
-0.098,0.207,5.056,17.496,88.0,10.01,37.79
0.044,0.166,5.054,17.497,88.0,10.01,37.97
-0.059,0.186,5.054,17.498,88.0,10.01,38.12
0.051,0.166,5.054,17.499,88.0,10.01,38.34
0.176,0.207,5.054,17.501,88.0,10.01,38.51
-0.067,0.228,5.051,17.499,88.0,10.01,38.7
-0.13,0.249,5.051,17.498,82.0,10.01,38.91
-0.13,0.166,5.051,17.497,82.0,10.01,39.09
-0.151,0.207,5.05,17.496,82.0,10.01,39.2
-0.111,0.186,5.049,17.493,82.0,10.01,39.22
-0.17,0.269,5.049,17.491,82.0,10.01,39.41
0.102,0.311,5.047,17.487,82.0,10.0,39.62
-0.197,0.207,5.046,17.484,82.0,10.0,39.83
-0.039,0.166,5.046,17.481,82.0,10.0,39.96
0.129,0.124,5.046,17.477,82.0,10.0,40.11
0.105,0.145,5.046,17.474,82.0,10.0,40.18
-0.108,0.207,5.045,17.47,87.0,10.0,40.19
-0.102,0.186,5.044,17.467,87.0,10.0,40.14
-0.1,0.186,5.044,17.464,87.0,10.0,40.06
-0.114,0.145,5.044,17.46,87.0,10.0,39.86
-0.061,0.311,5.044,17.456,87.0,10.0,39.62
-0.104,0.269,5.044,17.455,87.0,10.0,39.55
0.165,0.269,5.044,17.451,87.0,10.0,39.51
-0.12,0.228,5.041,17.451,87.0,10.0,39.39
0.015,0.249,5.041,17.451,87.0,10.0,39.27
0.178,0.249,5.041,17.455,87.0,10.0,39.16
0.209,0.166,5.039,17.462,87.0,10.0,39.01
-0.038,0.228,5.039,17.476,87.0,9.99,38.86
-0.044,0.228,5.039,17.493,83.0,10.0,38.72
-0.049,0.207,5.037,17.518,83.0,10.0,38.59
-0.067,0.186,5.037,17.547,83.0,10.0,38.32
-0.039,0.228,5.037,17.581,83.0,10.0,38.01
-0.032,0.186,5.035,17.62,83.0,10.0,37.89
-0.07,0.311,5.034,17.662,83.0,10.0,37.82
0.158,0.186,5.034,17.706,83.0,10.0,37.73
0.006,0.166,5.033,17.751,83.0,10.0,37.63
0.107,0.186,5.033,17.798,83.0,10.01,37.58
0.272,0.228,5.032,17.844,83.0,10.02,37.5
0.021,0.207,5.032,17.889,83.0,10.01,37.43
-0.054,0.186,5.032,17.928,81.0,10.02,37.43
-0.048,0.249,5.032,17.968,81.0,10.01,37.4
-0.066,0.311,5.032,18.005,81.0,10.02,37.38
-0.08,0.373,5.029,18.039,81.0,10.04,37.2
-0.059,0.331,5.029,18.07,81.0,10.04,37.15
-0.051,0.166,5.029,18.096,81.0,10.04,37.18
-0.096,0.228,5.028,18.122,81.0,10.05,37.25
0.112,0.186,5.027,18.141,81.0,10.07,37.26
-0.03,0.186,5.029,18.162,81.0,10.08,37.33
0.064,0.145,5.027,18.172,81.0,10.08,37.4
0.222,0.186,5.027,18.178,81.0,10.1,37.49
-0.018,0.145,5.027,18.183,81.0,10.12,37.61
-0.106,0.207,5.024,18.185,77.0,10.11,37.78
-0.106,0.249,5.024,18.181,77.0,10.12,37.91
-0.13,0.207,5.024,18.178,77.0,10.13,38.07
-0.146,0.249,5.024,18.171,77.0,10.15,38.07
-0.149,0.186,5.023,18.162,77.0,10.17,38.24
-0.105,0.269,5.022,18.152,77.0,10.18,38.47
-0.176,0.207,5.022,18.141,77.0,10.19,38.71
0.058,0.249,5.022,18.128,77.0,10.19,38.86
-0.146,0.207,5.02,18.113,77.0,10.19,39.04
-0.038,0.331,5.019,18.098,77.0,10.19,39.21
0.136,0.207,5.019,18.084,75.0,10.19,39.36
0.027,0.186,5.018,18.069,75.0,10.19,39.53
-0.143,0.186,5.019,18.054,75.0,10.22,39.74
-0.134,0.186,5.017,18.039,75.0,10.24,39.88
-0.135,0.186,5.017,18.026,75.0,10.26,39.99
-0.146,0.145,5.017,18.012,75.0,10.26,40.03
-0.091,0.145,5.017,18.0,75.0,10.27,40.06
-0.149,0.249,5.015,17.989,75.0,10.27,40.1
0.102,0.269,5.014,17.975,75.0,10.27,40.07
-0.144,0.166,5.014,17.965,75.0,10.28,39.96
-0.008,0.145,5.014,17.955,75.0,10.28,39.92
0.175,0.228,5.013,17.948,75.0,10.28,39.85
0.101,0.207,5.012,17.938,75.0,10.28,39.67
-0.091,0.207,5.012,17.929,83.0,10.28,39.53
-0.077,0.207,5.012,17.922,83.0,10.28,39.48
-0.075,0.145,5.01,17.916,83.0,10.28,39.39
-0.087,0.145,5.009,17.91,83.0,10.28,39.15
-0.049,0.269,5.009,17.905,83.0,10.28,38.89
-0.051,0.269,5.009,17.902,83.0,10.28,38.79
-0.1,0.228,5.009,17.899,83.0,10.28,38.72
0.183,0.228,5.007,17.9,83.0,10.28,38.59
0.001,0.166,5.007,17.905,83.0,10.28,38.43
0.096,0.186,5.005,17.922,83.0,10.28,38.18
0.287,0.249,5.005,17.922,83.0,10.26,38.16
0.078,0.207,5.004,17.932,83.0,10.26,38.01
-0.035,0.228,5.004,17.943,79.0,10.24,37.94
-0.025,0.186,5.004,17.954,79.0,10.22,37.81
-0.039,0.186,5.003,17.964,79.0,10.19,37.68
-0.052,0.414,5.002,17.973,79.0,10.17,37.43
-0.007,0.249,5.002,17.984,79.0,10.16,37.31
-0.049,0.207,5.002,17.989,79.0,10.13,37.3
0.16,0.249,5.002,17.994,79.0,10.13,37.33
-0.034,0.228,4.999,17.998,79.0,10.12,37.31
0.04,0.166,4.999,17.998,79.0,10.12,37.31
0.184,0.207,4.999,17.998,79.0,10.11,37.35
0.254,0.207,4.997,17.996,79.0,10.1,37.32
-0.015,0.145,4.997,17.992,79.0,10.08,37.32
-0.036,0.269,4.997,17.987,80.0,10.08,37.36
-0.056,0.228,4.997,17.978,80.0,10.06,37.38
-0.066,0.207,4.994,17.969,80.0,10.07,37.32
-0.075,0.207,4.994,17.958,80.0,10.07,37.15
-0.022,0.207,4.994,17.944,80.0,10.05,37.16
-0.08,0.186,4.994,17.932,80.0,10.05,37.29
0.171,0.166,4.992,17.906,80.0,10.05,37.56
-0.111,0.207,4.992,17.903,80.0,10.05,37.58
0.01,0.186,4.992,17.89,80.0,10.05,37.72
0.161,0.269,4.992,17.875,80.0,10.04,37.89
0.169,0.166,4.989,17.862,80.0,10.04,38.08
-0.068,0.186,4.989,17.848,80.0,10.02,38.29
-0.077,0.207,4.989,17.836,78.0,10.02,38.52
-0.104,0.186,4.989,17.824,78.0,10.04,38.73
-0.105,0.186,4.987,17.811,78.0,10.04,38.84
-0.065,0.186,4.987,17.8,78.0,10.05,38.94
-0.126,0.228,4.987,17.788,78.0,10.05,39.16
0.124,0.228,4.984,17.776,78.0,10.06,39.43
-0.152,0.186,4.984,17.758,78.0,10.06,39.74
-0.007,0.207,4.983,17.755,78.0,10.06,39.76
0.157,0.207,4.984,17.746,78.0,10.07,39.93
0.119,0.228,4.984,17.737,78.0,10.07,40.1
-0.09,0.207,4.984,17.728,84.0,10.07,40.24
-0.09,0.207,4.983,17.721,84.0,10.07,40.42
-0.094,0.186,4.982,17.713,84.0,10.07,40.56
-0.083,0.145,4.982,17.706,84.0,10.07,40.56
-0.072,0.228,4.982,17.698,84.0,10.07,40.5
-0.094,0.228,4.979,17.692,84.0,10.07,40.48
0.079,0.228,4.979,17.683,84.0,10.06,40.47
-0.022,0.207,4.979,17.676,84.0,10.07,40.39
0.094,0.186,4.978,17.669,84.0,10.07,40.29
0.238,0.186,4.977,17.663,84.0,10.07,40.23
-0.002,0.145,4.977,17.658,84.0,10.07,40.14
-0.063,0.186,4.975,17.654,88.0,10.07,40.03
-0.052,0.269,4.974,17.653,88.0,10.07,39.94
-0.065,0.249,4.974,17.65,88.0,10.07,39.84
-0.049,0.186,4.974,17.655,88.0,10.07,39.58
-0.025,0.186,4.974,17.662,88.0,10.07,39.42
-0.084,0.207,4.974,17.673,88.0,10.07,39.31
0.182,0.186,4.973,17.69,88.0,10.06,39.2
0.025,0.166,4.972,17.71,88.0,10.07,39.05
0.125,0.207,4.972,17.734,88.0,10.06,38.93
0.304,0.186,4.972,17.761,88.0,10.07,38.77
0.076,0.166,4.969,17.795,88.0,10.06,38.61
-0.013,0.207,4.969,17.831,84.0,10.07,38.47
-0.006,0.228,4.969,17.867,84.0,10.07,38.3
-0.022,0.373,4.969,17.906,84.0,10.07,38.12
0.005,0.29,4.969,17.946,84.0,10.06,37.78
-0.009,0.207,4.969,17.987,84.0,10.06,37.59
0.009,0.228,4.967,18.024,84.0,10.06,37.54
0.137,0.186,4.967,18.059,84.0,10.06,37.53
0.038,0.186,4.967,18.091,84.0,10.07,37.48
0.147,0.207,4.964,18.119,84.0,10.06,37.47
0.267,0.207,4.964,18.145,84.0,10.06,37.47
0.002,0.186,4.964,18.165,84.0,10.06,37.52
-0.047,0.228,4.964,18.181,85.0,10.07,37.64
-0.054,0.166,4.963,18.19,85.0,10.06,37.8
-0.057,0.249,4.962,18.196,85.0,10.07,37.99
-0.045,0.228,4.96,18.2,85.0,10.06,38.03
-0.057,0.249,4.96,18.2,85.0,10.07,38.28
-0.079,0.166,4.962,18.193,85.0,10.06,38.6
0.084,0.207,4.962,18.184,85.0,10.07,38.92
-0.009,0.228,4.962,18.158,85.0,10.07,39.48
0.096,0.207,4.96,18.156,85.0,10.07,39.52
0.237,0.29,4.959,18.14,85.0,10.07,39.81
0.0,0.249,4.959,18.122,85.0,10.07,40.08
-0.075,0.269,4.959,18.105,84.0,10.06,40.41
-0.073,0.228,4.959,18.085,84.0,10.06,40.68
-0.081,0.352,4.958,18.065,84.0,10.07,40.88
-0.054,0.331,4.957,18.048,84.0,10.07,40.85
-0.129,0.207,4.957,18.03,84.0,10.07,40.91
0.039,0.29,4.957,18.01,84.0,10.07,40.87
-0.086,0.186,4.957,17.992,84.0,10.07,40.79
0.036,0.207,4.957,17.973,84.0,10.07,40.69
0.21,0.228,4.957,17.954,84.0,10.07,40.64
0.066,0.166,4.954,17.937,84.0,10.06,40.64
-0.054,0.207,4.955,17.921,89.0,10.07,40.69
-0.046,0.186,4.954,17.905,89.0,10.06,40.81
-0.069,0.166,4.954,17.89,89.0,10.07,41.02
-0.077,0.249,4.954,17.875,89.0,10.07,41.12
-0.045,0.269,4.954,17.86,89.0,10.07,41.23
-0.129,0.207,4.954,17.847,89.0,10.07,41.4
0.162,0.166,4.954,17.835,89.0,10.06,41.52
-0.043,0.207,4.954,17.821,89.0,10.07,41.52
0.047,0.311,4.957,17.811,89.0,10.07,41.55
0.232,0.145,4.957,17.799,89.0,10.07,41.57
0.054,0.207,4.957,17.791,89.0,10.07,41.56
-0.068,0.207,4.959,17.784,85.0,10.07,41.54
-0.056,0.186,4.957,17.778,85.0,10.07,41.77
-0.038,0.228,4.957,17.773,85.0,10.06,41.86
-0.033,0.269,4.957,17.769,85.0,10.06,41.78
-0.099,0.207,4.957,17.772,85.0,10.06,41.71
0.137,0.249,4.957,17.775,85.0,10.06,41.7
-0.065,0.207,4.955,17.781,85.0,10.07,41.81
-0.006,0.166,4.954,17.807,85.0,10.07,42.01
0.138,0.186,4.955,17.808,85.0,10.07,42.04
0.195,0.186,4.954,17.824,85.0,10.07,42.23
-0.055,0.124,4.954,17.842,85.0,10.07,42.32
-0.068,0.331,4.954,17.862,88.0,10.07,42.3
-0.063,0.207,4.954,17.884,88.0,10.07,42.09
-0.045,0.186,4.955,17.904,88.0,10.07,41.77
-0.046,0.249,4.954,17.926,88.0,10.08,41.34
-0.076,0.186,4.954,17.946,88.0,10.07,41.09
0.128,0.166,4.953,17.962,88.0,10.07,40.85
0.009,0.145,4.952,17.974,88.0,10.07,40.48
0.125,0.249,4.951,17.985,88.0,10.06,40.07
0.267,0.228,4.95,17.993,88.0,10.06,39.68
0.014,0.186,4.95,17.997,88.0,10.07,39.3
-0.039,0.145,4.95,18.001,90.0,10.07,38.97
-0.033,0.228,4.947,18.001,90.0,10.07,38.69
-0.042,0.29,4.947,17.998,90.0,10.07,38.44
0.013,0.186,4.947,17.993,90.0,10.07,38.18
-0.073,0.311,4.945,17.989,90.0,10.07,38.14
0.168,0.249,4.945,17.98,90.0,10.07,38.25
-0.037,0.269,4.945,17.969,90.0,10.07,38.38
0.067,0.249,4.945,17.958,90.0,10.07,38.32
0.241,0.249,4.945,17.948,90.0,10.07,38.31
0.134,0.207,4.943,17.938,90.0,10.07,38.39
-0.033,0.186,4.942,17.925,88.0,10.07,38.47
-0.027,0.186,4.942,17.916,88.0,10.07,38.36
-0.045,0.207,4.942,17.906,88.0,10.07,38.13
0.002,0.228,4.942,17.896,88.0,10.07,37.96
-0.074,0.249,4.942,17.886,88.0,10.07,37.94
0.182,0.228,4.942,17.878,88.0,10.07,38.09
-0.092,0.186,4.94,17.868,88.0,10.07,38.33
0.024,0.207,4.94,17.861,88.0,10.07,38.44
0.17,0.124,4.94,17.853,88.0,10.07,38.42
0.163,0.186,4.94,17.846,88.0,10.07,38.32
-0.059,0.207,4.94,17.838,91.0,10.07,38.19
-0.06,0.145,4.94,17.831,91.0,10.07,38.03
-0.075,0.207,4.937,17.824,91.0,10.07,37.9
-0.032,0.207,4.937,17.816,91.0,10.07,37.8
-0.107,0.228,4.937,17.809,91.0,10.07,37.63
0.116,0.331,4.937,17.803,91.0,10.07,37.62
-0.117,0.477,4.937,17.796,91.0,10.07,37.7
0.026,0.249,4.935,17.788,91.0,10.07,37.72
0.201,0.228,4.936,17.781,91.0,10.07,37.69
0.148,0.207,4.935,17.773,91.0,10.07,37.64
-0.047,0.186,4.937,17.768,93.0,10.07,37.63
-0.034,0.166,4.937,17.759,93.0,10.07,37.45
-0.043,0.207,4.937,17.751,93.0,10.07,37.11
-0.013,0.124,4.937,17.744,93.0,10.07,36.79
-0.113,0.228,4.936,17.738,93.0,10.07,36.58
0.071,0.207,4.935,17.731,93.0,10.07,36.6
-0.035,0.207,4.935,17.723,93.0,10.07,36.81
0.059,0.228,4.935,17.716,93.0,10.07,37.1
0.213,0.166,4.935,17.711,93.0,10.07,37.41
0.058,0.186,4.932,17.703,93.0,10.07,37.55
-0.062,0.228,4.932,17.698,96.0,10.07,37.6
-0.06,0.249,4.932,17.693,96.0,10.07,37.61
-0.038,0.207,4.931,17.691,96.0,10.07,37.68
-0.075,0.186,4.93,17.686,96.0,10.07,37.62
0.013,0.228,4.93,17.682,96.0,10.07,37.42
-0.031,0.207,4.928,17.678,96.0,10.07,37.4
-0.002,0.186,4.927,17.676,96.0,10.07,37.49
0.123,0.207,4.927,17.673,96.0,10.07,37.5
0.19,0.186,4.927,17.67,96.0,10.07,37.47
-0.047,0.186,4.927,17.667,96.0,10.07,37.49
-0.067,0.29,4.927,17.665,96.0,10.07,37.52
-0.056,0.269,4.927,17.662,96.0,10.06,37.49
-0.035,0.228,4.927,17.66,96.0,10.07,37.54
-0.127,0.186,4.927,17.657,96.0,10.07,37.39
0.081,0.249,4.927,17.655,96.0,10.07,37.37
-0.057,0.228,4.925,17.65,96.0,10.07,37.53
0.029,0.145,4.925,17.65,96.0,10.07,37.53
0.169,0.186,4.925,17.649,96.0,10.07,37.52
0.004,0.186,4.922,17.646,96.0,10.07,37.61
-0.111,0.166,4.921,17.644,97.0,10.07,37.75
-0.121,0.166,4.92,17.643,97.0,10.07,37.89
-0.095,0.207,4.92,17.643,97.0,10.07,38.08
-0.174,0.228,4.92,17.641,97.0,10.07,38.2
0.029,0.269,4.92,17.64,97.0,10.07,38.39
-0.232,0.29,4.917,17.64,97.0,10.07,38.65
-0.085,0.186,4.917,17.639,97.0,10.07,39.01
0.046,0.186,4.917,17.638,100.0,10.07,39.24
0.002,0.166,4.917,17.639,100.0,10.07,39.47
-0.169,0.186,4.917,17.64,100.0,10.07,39.72
-0.159,0.207,4.917,17.641,100.0,10.07,39.96
-0.118,0.228,4.916,17.644,100.0,10.07,40.11
-0.183,0.145,4.915,17.643,100.0,10.07,40.32
0.048,0.269,4.915,17.639,100.0,10.07,40.42
-0.209,0.207,4.915,17.636,100.0,10.07,40.52
-0.045,0.207,4.912,17.635,100.0,10.07,40.55
0.1,0.166,4.912,17.634,103.0,10.07,40.48
0.053,0.145,4.912,17.629,103.0,10.07,40.37
-0.107,0.228,4.911,17.624,103.0,10.07,40.26
-0.092,0.186,4.91,17.619,103.0,10.07,40.09
-0.062,0.228,4.91,17.614,103.0,10.07,39.94
-0.097,0.311,4.91,17.609,103.0,10.07,39.73
0.042,0.228,4.908,17.604,103.0,10.07,39.42
-0.016,0.166,4.907,17.597,103.0,10.07,39.26
-0.019,0.249,4.907,17.591,103.0,10.07,39.15
0.106,0.249,4.907,17.586,103.0,10.07,38.98
0.159,0.29,4.905,17.581,103.0,10.07,38.82
-0.057,0.207,4.905,17.576,103.0,10.07,38.65
-0.061,0.269,4.905,17.571,100.0,10.07,38.45
-0.049,0.269,4.905,17.567,100.0,10.07,38.21
-0.036,0.249,4.905,17.562,100.0,10.07,38.01
-0.13,0.228,4.902,17.557,100.0,10.07,37.7
0.168,0.145,4.902,17.552,100.0,10.07,37.57
-0.045,0.166,4.902,17.542,100.0,10.07,37.52
0.042,0.207,4.902,17.542,100.0,10.07,37.52
0.189,0.207,4.902,17.537,100.0,10.07,37.43
0.014,0.166,4.902,17.532,100.0,10.07,37.32
-0.074,0.186,4.902,17.529,99.0,10.07,37.26
-0.071,0.145,4.902,17.526,99.0,10.07,37.24
-0.069,0.186,4.9,17.523,99.0,10.07,37.25
-0.049,0.207,4.9,17.519,99.0,10.07,37.15
-0.137,0.207,4.9,17.517,99.0,10.07,37.12
0.142,0.228,4.9,17.512,99.0,10.07,37.21
-0.035,0.207,4.898,17.508,99.0,10.07,37.34
0.056,0.145,4.897,17.506,99.0,10.07,37.39
0.201,0.186,4.897,17.503,99.0,10.07,37.44
0.002,0.207,4.895,17.501,99.0,10.07,37.47
-0.074,0.207,4.893,17.498,93.0,10.07,37.5
-0.073,0.186,4.897,17.494,93.0,10.07,37.49
-0.099,0.166,4.9,17.493,93.0,10.07,37.52
-0.054,0.249,4.9,17.491,93.0,10.07,37.35
-0.135,0.186,4.898,17.491,93.0,10.07,37.28
0.099,0.228,4.897,17.489,93.0,10.07,37.34
-0.115,0.186,4.897,17.488,93.0,10.07,37.51
-0.02,0.166,4.895,17.491,93.0,10.07,37.62
0.124,0.166,4.895,17.491,90.0,10.07,37.79
0.019,0.207,4.893,17.493,90.0,10.07,37.98
-0.134,0.269,4.892,17.494,90.0,10.07,38.19
-0.131,0.269,4.892,17.499,90.0,10.07,38.42
-0.154,0.166,4.892,17.503,90.0,10.07,38.67
-0.121,0.249,4.891,17.507,90.0,10.07,38.79
-0.202,0.166,4.89,17.514,90.0,10.07,38.93
0.015,0.228,4.89,17.519,90.0,10.07,39.21
-0.168,0.228,4.89,17.525,90.0,10.07,39.52
-0.047,0.166,4.888,17.534,90.0,10.07,39.71
0.112,0.124,4.887,17.543,94.0,10.07,39.88
-0.021,0.228,4.887,17.553,94.0,10.07,40.05
-0.148,0.186,4.886,17.563,94.0,10.07,40.21
-0.126,0.207,4.885,17.576,94.0,10.07,40.33
-0.135,0.186,4.885,17.593,94.0,10.07,40.46
-0.095,0.269,4.885,17.614,94.0,10.07,40.35
-0.169,0.249,4.885,17.64,94.0,10.07,40.21
0.086,0.29,4.883,17.673,94.0,10.07,40.17
-0.095,0.249,4.882,17.71,94.0,10.07,40.16
0.021,0.311,4.882,17.754,94.0,10.07,40.03
0.18,0.207,4.882,17.807,94.0,10.07,39.93
0.014,0.207,4.88,17.867,94.0,10.07,39.83
-0.089,0.166,4.88,17.937,93.0,10.07,39.69
-0.071,0.29,4.88,18.02,93.0,10.07,39.54
-0.087,0.207,4.878,18.113,93.0,10.07,39.4
-0.034,0.145,4.877,18.214,93.0,10.07,39.07
-0.102,0.124,4.877,18.329,93.0,10.07,38.8
0.161,0.249,4.877,18.448,93.0,10.07,38.67
-0.078,0.207,4.877,18.57,93.0,10.07,38.55
0.031,0.207,4.875,18.69,93.0,10.07,38.35
0.206,0.207,4.875,18.817,93.0,10.07,38.19
0.106,0.145,4.875,18.952,93.0,10.07,38.03
-0.072,0.249,4.875,19.088,91.0,10.07,37.89
-0.063,0.311,4.872,19.217,91.0,10.07,37.76
-0.075,0.249,4.872,19.346,91.0,10.07,37.68
-0.065,0.207,4.872,19.474,91.0,10.07,37.48
-0.058,0.228,4.872,19.6,91.0,10.07,37.3
-0.107,0.228,4.871,19.719,91.0,10.07,37.29
0.133,0.228,4.87,19.824,91.0,10.07,37.36
-0.023,0.186,4.87,19.926,91.0,10.07,37.36
0.08,0.249,4.87,20.013,91.0,10.06,37.37
0.209,0.145,4.87,20.096,91.0,10.07,37.4
-0.047,0.249,4.87,20.176,91.0,10.07,37.4
-0.113,0.186,4.87,20.247,87.0,10.07,37.43
-0.145,0.249,4.871,20.315,87.0,10.07,37.45
-0.157,0.29,4.872,20.381,87.0,10.07,37.54
-0.171,0.228,4.872,20.448,87.0,10.06,37.5
-0.129,0.207,4.875,20.51,87.0,10.07,37.66
-0.189,0.228,4.877,20.566,87.0,10.07,37.94
0.063,0.228,4.881,20.659,87.0,10.07,38.39
-0.228,0.228,4.882,20.665,87.0,10.07,38.42
-0.102,0.228,4.886,20.71,87.0,10.07,38.64
0.046,0.186,4.888,20.755,80.0,10.07,38.87
0.023,0.228,4.891,20.782,80.0,10.07,39.09
-0.197,0.207,4.896,20.801,80.0,10.07,39.33
-0.201,0.207,4.898,20.808,80.0,10.07,39.58
-0.208,0.207,4.904,20.808,80.0,10.07,39.76
-0.225,0.228,4.911,20.799,80.0,10.07,39.8
-0.185,0.186,4.916,20.785,80.0,10.07,39.86
-0.201,0.249,4.921,20.767,80.0,10.07,40.04
-0.043,0.166,4.926,20.738,80.0,10.07,40.24
-0.158,0.228,4.931,20.699,80.0,10.07,40.34
-0.097,0.186,4.939,20.655,80.0,10.07,40.39
0.056,0.124,4.943,20.609,80.0,10.07,40.35
0.119,0.166,4.948,20.552,80.0,10.07,40.26
-0.121,0.207,4.953,20.495,80.0,10.07,40.14
-0.136,0.166,4.958,20.433,82.0,10.07,40.06
-0.124,0.228,4.963,20.368,82.0,10.07,39.96
-0.138,0.124,4.97,20.304,82.0,10.07,39.78
-0.137,0.249,4.975,20.24,82.0,10.07,39.51
-0.081,0.269,4.981,20.178,82.0,10.07,39.38
-0.12,0.207,4.988,20.121,82.0,10.07,39.28
0.155,0.166,4.994,20.075,82.0,10.07,39.15
-0.123,0.249,5.001,20.031,82.0,10.07,38.97
0.003,0.29,5.008,20.004,82.0,10.07,38.81
0.173,0.29,5.015,19.989,82.0,10.07,38.63
0.175,0.186,5.02,19.988,82.0,10.07,38.42
-0.064,0.269,5.025,20.002,82.0,10.07,38.28
-0.063,0.166,5.03,20.03,79.0,10.07,38.14
-0.066,0.207,5.033,20.065,79.0,10.07,38.0
-0.08,0.166,5.038,20.107,79.0,10.07,37.77
-0.085,0.269,5.04,20.152,79.0,10.07,37.5
-0.028,0.186,5.045,20.193,79.0,10.07,37.43
-0.074,0.186,5.048,20.229,79.0,10.07,37.43
0.199,0.249,5.054,20.26,79.0,10.07,37.42
-0.075,0.186,5.057,20.286,79.0,10.07,37.4
0.041,0.249,5.061,20.307,79.0,10.07,37.4
0.203,0.186,5.065,20.322,79.0,10.07,37.41
0.198,0.228,5.067,20.328,79.0,10.07,37.41
-0.045,0.104,5.071,20.326,79.0,10.07,37.42
-0.054,0.249,5.074,20.319,77.0,10.07,37.45
-0.063,0.145,5.077,20.305,77.0,10.07,37.45
-0.088,0.269,5.081,20.284,77.0,10.07,37.39
-0.103,0.228,5.087,20.255,77.0,10.07,37.26
-0.068,0.186,5.09,20.22,77.0,10.07,37.34
-0.099,0.249,5.096,20.179,77.0,10.07,37.54
0.079,0.186,5.099,20.133,77.0,10.07,37.72
-0.085,0.166,5.101,20.085,77.0,10.07,37.87
-0.033,0.186,5.105,20.036,77.0,10.07,38.07
0.103,0.228,5.107,19.986,77.0,10.07,38.26
0.162,0.186,5.111,19.936,77.0,10.07,38.47
-0.099,0.249,5.115,19.881,77.0,10.07,38.69
-0.127,0.207,5.117,19.825,76.0,10.07,38.94
-0.129,0.166,5.121,19.773,76.0,10.07,39.13
-0.153,0.207,5.124,19.722,76.0,10.07,39.26
-0.115,0.269,5.126,19.671,76.0,10.07,39.33
-0.138,0.207,5.128,19.622,76.0,10.07,39.54
0.052,0.228,5.131,19.576,76.0,10.07,39.78
-0.116,0.166,5.132,19.532,76.0,10.07,39.99
-0.029,0.207,5.133,19.492,76.0,10.07,40.13
0.129,0.249,5.134,19.45,76.0,10.07,40.27
0.19,0.186,5.136,19.412,76.0,10.07,40.32
-0.06,0.166,5.137,19.371,76.0,10.07,40.26
-0.076,0.186,5.138,19.333,83.0,10.07,40.18
-0.065,0.124,5.138,19.294,83.0,10.07,40.05
-0.074,0.186,5.141,19.259,83.0,10.07,39.86
-0.02,0.166,5.143,19.225,83.0,10.07,39.59
-0.091,0.186,5.144,19.19,83.0,10.07,39.48
0.166,0.186,5.146,19.159,83.0,10.07,39.39
-0.035,0.166,5.148,19.129,83.0,10.07,39.27
0.074,0.145,5.151,19.099,83.0,10.07,39.08
0.272,0.269,5.151,19.071,83.0,10.07,38.93
0.121,0.186,5.152,19.042,83.0,10.07,38.74
-0.034,0.186,5.153,19.016,83.0,10.07,38.56
-0.019,0.207,5.156,18.991,88.0,10.07,38.37
-0.028,0.249,5.156,18.966,88.0,10.07,38.23
0.017,0.228,5.157,18.944,88.0,10.07,37.94
-0.044,0.166,5.158,18.923,88.0,10.07,37.69
0.219,0.207,5.158,18.9,88.0,10.07,37.61
-0.05,0.186,5.158,18.879,88.0,10.07,37.58
0.059,0.166,5.158,18.861,88.0,10.07,37.52
0.221,0.186,5.158,18.844,88.0,10.07,37.47
0.216,0.124,5.158,18.829,88.0,10.07,37.46
-0.023,0.207,5.158,18.815,88.0,10.07,37.44
-0.027,0.145,5.156,18.805,89.0,10.07,37.44
-0.034,0.186,5.156,18.8,89.0,10.06,37.44
-0.003,0.166,5.156,18.796,89.0,10.06,37.39
-0.062,0.166,5.154,18.797,89.0,10.06,37.24
-0.078,0.104,5.153,18.802,89.0,10.06,37.27
-0.06,0.249,5.153,18.807,89.0,10.07,37.42
0.011,0.186,5.153,18.813,89.0,10.07,37.57
0.16,0.166,5.152,18.823,89.0,10.07,37.71
0.165,0.29,5.151,18.833,89.0,10.07,37.92
-0.078,0.228,5.148,18.85,89.0,10.07,38.31
-0.09,0.166,5.148,18.852,89.0,10.07,38.33
-0.094,0.228,5.147,18.859,70.0,10.07,38.56
-0.063,0.186,5.146,18.865,70.0,10.07,38.72
-0.143,0.207,5.146,18.875,70.0,10.07,38.8
0.108,0.249,5.143,18.885,70.0,10.07,39.04
-0.114,0.186,5.142,18.895,70.0,10.07,39.36
-0.001,0.186,5.141,18.906,70.0,10.07,39.59
0.174,0.207,5.139,18.921,70.0,10.06,39.75
0.038,0.166,5.138,18.938,70.0,10.06,39.92
-0.095,0.166,5.137,18.954,70.0,10.07,40.07
-0.072,0.207,5.136,18.971,70.0,10.07,40.18
-0.044,0.186,5.133,18.987,70.0,10.06,40.34
-0.067,0.166,5.132,19.001,70.0,10.05,40.33
0.017,0.207,5.131,19.012,70.0,10.05,40.22
0.052,0.166,5.128,19.021,70.0,10.05,40.16
0.014,0.29,5.128,19.026,70.0,10.06,40.15
0.155,0.207,5.126,19.03,70.0,10.07,40.03
0.233,0.166,5.126,19.032,70.0,10.07,39.88
-0.01,0.207,5.124,19.03,70.0,10.08,39.75
-0.024,0.249,5.122,19.026,97.0,10.08,39.63
-0.013,0.145,5.121,19.018,97.0,10.08,39.48
0.0,0.166,5.12,19.009,97.0,10.07,39.29
0.006,0.166,5.117,19.002,97.0,10.08,38.95
-0.046,0.311,5.116,18.994,97.0,10.08,38.75
0.213,0.186,5.114,18.99,97.0,10.08,38.63
0.047,0.186,5.112,18.99,97.0,10.08,38.53
0.157,0.186,5.111,18.998,97.0,10.1,38.36
0.312,0.186,5.111,19.017,97.0,10.08,38.23
0.053,0.166,5.109,19.044,97.0,10.08,38.1
-0.008,0.269,5.107,19.079,97.0,10.08,37.97
-0.003,0.207,5.106,19.126,90.0,10.08,37.84
-0.019,0.207,5.105,19.176,90.0,10.08,37.71
0.028,0.186,5.104,19.231,90.0,10.08,37.47
-0.04,0.186,5.104,19.287,90.0,10.08,37.34
0.232,0.228,5.101,19.339,90.0,10.07,37.35
-0.034,0.186,5.1,19.387,90.0,10.07,37.41
0.075,0.249,5.099,19.432,90.0,10.07,37.39
0.245,0.249,5.096,19.468,90.0,10.07,37.38
0.191,0.124,5.096,19.498,90.0,10.07,37.37
-0.027,0.207,5.096,19.522,90.0,10.07,37.38
-0.03,0.166,5.094,19.536,88.0,10.07,37.41
-0.039,0.29,5.094,19.545,88.0,10.07,37.44
-0.061,0.186,5.094,19.548,88.0,10.07,37.34
-0.058,0.145,5.094,19.545,88.0,10.07,37.21
-0.091,0.249,5.094,19.533,88.0,10.06,37.3
-0.08,0.207,5.091,19.515,88.0,10.06,37.52
0.157,0.207,5.091,19.491,88.0,10.07,37.66
-0.035,0.228,5.091,19.464,88.0,10.07,37.83
0.053,0.207,5.091,19.435,88.0,10.07,38.07
0.228,0.166,5.092,19.37,88.0,10.07,38.45
0.049,0.228,5.094,19.366,88.0,10.07,38.47
-0.083,0.166,5.094,19.333,80.0,10.07,38.71
-0.08,0.228,5.094,19.301,80.0,10.06,38.91
-0.1,0.166,5.094,19.267,80.0,10.07,39.09
-0.116,0.228,5.096,19.236,80.0,10.07,39.13
-0.12,0.186,5.096,19.208,80.0,10.07,39.3
-0.063,0.228,5.099,19.178,80.0,10.07,39.53
-0.11,0.166,5.101,19.151,80.0,10.07,39.78
0.161,0.166,5.102,19.125,80.0,10.07,39.92
-0.127,0.207,5.104,19.103,80.0,10.07,40.13
0.018,0.166,5.106,19.082,80.0,10.07,40.31
0.19,0.186,5.106,19.062,80.0,10.07,40.34
0.165,0.186,5.107,19.043,80.0,10.07,40.29
-0.053,0.228,5.109,19.026,75.0,10.06,40.23
-0.051,0.249,5.109,19.008,75.0,10.06,40.11
-0.06,0.228,5.111,18.993,75.0,10.07,39.96
-0.065,0.249,5.111,18.978,75.0,10.07,39.75
-0.067,0.166,5.114,18.964,75.0,10.07,39.52
-0.018,0.186,5.114,18.949,75.0,10.07,39.4
-0.048,0.186,5.115,18.934,75.0,10.07,39.33
0.175,0.311,5.115,18.908,75.0,10.07,39.05
-0.021,0.249,5.115,18.906,75.0,10.07,39.04
0.054,0.166,5.115,18.894,75.0,10.07,38.91
0.209,0.228,5.117,18.88,75.0,10.07,38.75
0.265,0.186,5.119,18.868,75.0,10.07,38.58
0.0,0.186,5.119,18.857,75.0,10.07,38.43
-0.015,0.166,5.119,18.844,76.0,10.07,38.3
-0.014,0.269,5.119,18.833,76.0,10.06,38.16
-0.03,0.207,5.119,18.82,76.0,10.05,37.94
-0.017,0.186,5.116,18.81,76.0,10.05,37.66
0.004,0.186,5.116,18.798,76.0,10.06,37.55
-0.067,0.228,5.116,18.788,76.0,10.07,37.51
0.201,0.29,5.116,18.778,76.0,10.07,37.49
0.03,0.145,5.116,18.768,76.0,10.07,37.43
0.128,0.269,5.116,18.762,76.0,10.08,37.44
0.307,0.228,5.115,18.755,76.0,10.08,37.44
0.064,0.166,5.114,18.751,76.0,10.08,37.43
-0.037,0.186,5.114,18.751,81.0,10.1,37.45
-0.035,0.207,5.114,18.752,81.0,10.08,37.45
-0.055,0.207,5.112,18.76,81.0,10.08,37.48
-0.067,0.145,5.111,18.768,81.0,10.1,37.36
-0.025,0.207,5.111,18.78,81.0,10.1,37.39
-0.106,0.145,5.111,18.792,81.0,10.12,37.59
0.144,0.249,5.109,18.808,81.0,10.13,37.84
-0.072,0.166,5.106,18.826,81.0,10.16,38.03
0.024,0.186,5.105,18.842,81.0,10.18,38.24
0.204,0.186,5.104,18.859,82.0,10.19,38.44
0.058,0.249,5.101,18.872,82.0,10.17,38.67
-0.11,0.228,5.1,18.885,82.0,10.15,38.94
-0.11,0.249,5.099,18.895,82.0,10.12,39.17
-0.121,0.249,5.097,18.905,82.0,10.08,39.35
-0.097,0.207,5.096,18.914,82.0,10.06,39.43
-0.136,0.186,5.094,18.918,82.0,10.05,39.58
0.095,0.207,5.092,18.92,82.0,10.05,39.8
-0.145,0.145,5.091,18.919,82.0,10.07,39.99
-0.029,0.186,5.089,18.916,82.0,10.1,40.09
0.133,0.228,5.089,18.911,89.0,10.11,40.23
0.172,0.186,5.086,18.905,89.0,10.12,40.33
-0.072,0.166,5.086,18.897,89.0,10.12,40.32
-0.081,0.166,5.084,18.888,89.0,10.12,40.21
-0.078,0.207,5.084,18.878,89.0,10.1,40.11
-0.066,0.186,5.081,18.867,89.0,10.07,40.01
-0.05,0.186,5.081,18.854,89.0,10.07,39.76
-0.093,0.186,5.08,18.832,89.0,10.07,39.55
0.141,0.186,5.08,18.829,89.0,10.08,39.54
0.002,0.145,5.079,18.818,89.0,10.1,39.44
0.122,0.166,5.076,18.808,89.0,10.1,39.26
0.283,0.166,5.075,18.801,89.0,10.1,39.15
0.022,0.207,5.074,18.793,89.0,10.11,38.96
-0.036,0.186,5.074,18.79,89.0,10.12,38.79
-0.026,0.228,5.074,18.789,89.0,10.11,38.62
-0.044,0.186,5.071,18.793,89.0,10.13,38.43
0.001,0.29,5.071,18.802,89.0,10.13,38.07
-0.058,0.269,5.071,18.818,89.0,10.13,37.89
0.204,0.269,5.071,18.839,89.0,10.13,37.8
-0.067,0.186,5.07,18.869,89.0,10.13,37.76
0.042,0.207,5.069,18.905,89.0,10.13,37.63
0.201,0.269,5.066,18.946,89.0,10.12,37.57
0.205,0.166,5.066,18.992,89.0,10.12,37.53
-0.037,0.228,5.065,19.039,87.0,10.11,37.47
-0.038,0.207,5.064,19.089,87.0,10.1,37.46
-0.043,0.145,5.064,19.138,87.0,10.08,37.47
-0.059,0.186,5.062,19.182,87.0,10.07,37.38
-0.009,0.186,5.061,19.227,87.0,10.07,37.23
-0.063,0.207,5.061,19.264,87.0,10.06,37.24
0.178,0.186,5.06,19.298,87.0,10.06,37.31
-0.072,0.186,5.059,19.324,87.0,10.06,37.36
0.029,0.186,5.059,19.345,87.0,10.07,37.37
0.176,0.186,5.056,19.36,87.0,10.07,37.41
0.193,0.269,5.056,19.366,87.0,10.07,37.44
-0.05,0.249,5.055,19.37,84.0,10.07,37.52
-0.064,0.186,5.054,19.369,84.0,10.07,37.63
-0.08,0.249,5.051,19.362,84.0,10.07,37.76
-0.11,0.207,5.051,19.351,84.0,10.07,37.8
-0.122,0.228,5.05,19.336,84.0,10.08,37.8
-0.072,0.207,5.049,19.321,84.0,10.08,38.03
-0.144,0.186,5.049,19.299,84.0,10.08,38.31
0.1,0.269,5.046,19.277,84.0,10.08,38.51
-0.136,0.145,5.046,19.253,84.0,10.08,38.66
-0.031,0.145,5.046,19.231,84.0,10.08,38.87
0.134,0.228,5.046,19.207,79.0,10.08,39.06
0.031,0.186,5.045,19.184,79.0,10.08,39.24
-0.15,0.124,5.044,19.16,79.0,10.08,39.44
-0.149,0.145,5.044,19.138,79.0,10.08,39.6
-0.163,0.124,5.044,19.117,79.0,10.08,39.77
-0.17,0.228,5.044,19.094,79.0,10.08,39.79
-0.132,0.166,5.042,19.074,79.0,10.08,39.85
-0.198,0.207,5.041,19.055,79.0,10.08,39.98
0.053,0.228,5.041,19.035,79.0,10.08,40.15
-0.126,0.166,5.041,19.017,79.0,10.08,40.16
-0.008,0.186,5.039,19.003,79.0,10.08,40.14
0.168,0.166,5.039,18.987,85.0,10.08,40.06
-0.001,0.166,5.039,18.971,85.0,10.08,39.92
-0.127,0.186,5.037,18.956,85.0,10.08,39.8
-0.117,0.166,5.037,18.941,85.0,10.08,39.69
-0.125,0.166,5.037,18.929,85.0,10.08,39.59
-0.136,0.166,5.034,18.916,85.0,10.08,39.32
-0.075,0.186,5.034,18.904,85.0,10.08,39.13
-0.123,0.166,5.033,18.89,85.0,10.08,39.05
0.164,0.207,5.032,18.878,85.0,10.08,39.0
-0.123,0.249,5.032,18.868,85.0,10.08,38.86
0.006,0.166,5.03,18.858,85.0,10.08,38.75
0.173,0.166,5.029,18.848,85.0,10.08,38.64
0.168,0.186,5.029,18.838,85.0,10.07,38.48
-0.055,0.166,5.027,18.83,82.0,10.07,38.36
-0.052,0.228,5.027,18.82,82.0,10.07,38.24
-0.058,0.166,5.027,18.812,82.0,10.07,38.12
-0.074,0.249,5.027,18.804,82.0,10.07,37.88
-0.017,0.228,5.024,18.797,82.0,10.07,37.63
0.192,0.207,5.024,18.788,82.0,10.07,37.55
0.16,0.207,5.023,18.78,82.0,10.08,37.55
-0.073,0.186,5.022,18.773,82.0,10.08,37.51
0.036,0.207,5.022,18.767,85.0,10.08,37.46
0.211,0.145,5.02,18.761,85.0,10.08,37.45
0.134,0.249,5.017,18.748,85.0,10.08,37.43
-0.064,0.145,5.018,18.747,85.0,10.08,37.43
-0.06,0.186,5.017,18.742,85.0,10.08,37.43
-0.068,0.186,5.017,18.736,85.0,10.08,37.45
-0.086,0.186,5.014,18.73,85.0,10.08,37.35
-0.067,0.207,5.014,18.725,85.0,10.08,37.23
-0.051,0.186,5.012,18.717,85.0,10.08,37.25
-0.112,0.166,5.01,18.713,85.0,10.08,37.34
0.122,0.166,5.009,18.708,85.0,10.07,37.39
-0.03,0.166,5.008,18.703,85.0,10.07,37.46
0.061,0.228,5.007,18.698,85.0,10.07,37.55
0.211,0.186,5.007,18.693,85.0,10.07,37.63
-0.017,0.207,5.004,18.688,85.0,10.07,37.76
-0.102,0.166,5.004,18.683,112.0,10.07,37.94
-0.106,0.228,5.002,18.679,112.0,10.07,38.09
-0.133,0.207,5.002,18.675,112.0,10.07,38.25
-0.142,0.186,4.999,18.67,112.0,10.07,38.25
-0.107,0.124,4.999,18.665,112.0,10.07,38.42
-0.186,0.166,4.997,18.66,112.0,10.08,38.68
0.054,0.249,4.997,18.658,112.0,10.08,38.93
-0.134,0.166,4.997,18.653,112.0,10.08,39.12
-0.024,0.228,4.994,18.648,112.0,10.08,39.33
0.143,0.207,4.994,18.644,83.0,10.08,39.52
-0.011,0.228,4.992,18.64,83.0,10.08,39.68
-0.139,0.166,4.992,18.635,83.0,10.08,39.87
-0.126,0.228,4.99,18.633,83.0,10.08,40.0
-0.136,0.207,4.989,18.629,83.0,10.08,40.1
-0.108,0.186,4.989,18.626,83.0,10.08,39.97
-0.124,0.186,4.987,18.623,83.0,10.08,39.86
-0.047,0.29,4.987,18.618,83.0,10.08,39.81
-0.018,0.186,4.985,18.613,83.0,10.08,39.79
-0.038,0.186,4.984,18.61,83.0,10.08,39.66
0.099,0.207,4.984,18.606,83.0,10.08,39.55
0.199,0.124,4.982,18.602,83.0,10.08,39.44
-0.048,0.166,4.982,18.601,83.0,10.08,39.28
-0.073,0.124,4.979,18.596,87.0,10.07,39.15
-0.072,0.228,4.979,18.593,87.0,10.07,39.03
-0.09,0.186,4.978,18.591,87.0,10.06,38.85
-0.07,0.207,4.977,18.586,87.0,10.06,38.53
-0.052,0.249,4.975,18.583,87.0,10.06,38.35
-0.107,0.186,4.974,18.58,87.0,10.05,38.28
0.144,0.186,4.974,18.576,87.0,10.05,38.22
-0.011,0.166,4.972,18.573,87.0,10.05,38.08
0.09,0.228,4.972,18.57,87.0,10.05,37.99
0.248,0.166,4.972,18.566,87.0,10.05,37.9
0.021,0.186,4.97,18.563,87.0,10.06,37.78
-0.05,0.29,4.969,18.56,82.0,10.06,37.73
-0.045,0.311,4.969,18.557,82.0,10.07,37.67
-0.063,0.249,4.967,18.555,82.0,10.07,37.61
-0.073,0.207,4.967,18.552,82.0,10.07,37.41
-0.014,0.186,4.965,18.548,82.0,10.07,37.33
-0.083,0.249,4.964,18.545,82.0,10.07,37.37
0.165,0.249,4.964,18.541,82.0,10.06,37.43
-0.053,0.269,4.963,18.539,82.0,10.07,37.43
0.056,0.124,4.965,18.536,82.0,10.07,37.46
0.223,0.186,4.964,18.533,82.0,10.06,37.47
0.144,0.186,4.963,18.529,82.0,10.06,37.46
-0.039,0.186,4.962,18.526,81.0,10.06,37.47
-0.033,0.166,4.962,18.523,81.0,10.07,37.49
-0.048,0.186,4.96,18.52,81.0,10.06,37.53
-0.07,0.186,4.959,18.516,81.0,10.07,37.4
-0.035,0.186,4.959,18.514,81.0,10.07,37.26
-0.06,0.228,4.959,18.51,81.0,10.06,37.28
0.025,0.249,4.959,18.506,81.0,10.07,37.4
0.015,0.166,4.957,18.504,81.0,10.07,37.42
0.003,0.166,4.957,18.5,81.0,10.07,37.41
0.121,0.228,4.955,18.496,81.0,10.07,37.47
0.212,0.145,4.954,18.493,81.0,10.07,37.47
-0.039,0.145,4.952,18.49,81.0,10.07,37.45
-0.068,0.228,4.952,18.488,81.0,10.07,37.51
-0.07,0.228,4.951,18.484,81.0,10.07,37.57
-0.089,0.207,4.95,18.48,81.0,10.07,37.56
-0.064,0.207,4.947,18.479,81.0,10.07,37.36
-0.074,0.207,4.947,18.476,81.0,10.07,37.32
-0.071,0.186,4.947,18.471,81.0,10.07,37.4
0.049,0.207,4.946,18.468,81.0,10.07,37.47
-0.034,0.186,4.945,18.465,81.0,10.07,37.47
0.075,0.311,4.945,18.461,81.0,10.07,37.52
0.19,0.186,4.945,18.459,81.0,10.07,37.61
-0.051,0.228,4.942,18.454,81.0,10.07,37.72
-0.103,0.186,4.942,18.453,83.0,10.07,37.86
-0.109,0.207,4.942,18.449,83.0,10.07,38.0
-0.135,0.166,4.94,18.447,83.0,10.07,38.12
-0.097,0.228,4.94,18.446,83.0,10.07,38.12
-0.146,0.186,4.94,18.442,83.0,10.07,38.27
0.095,0.228,4.937,18.439,83.0,10.07,38.51
-0.182,0.186,4.937,18.436,83.0,10.07,38.73
-0.05,0.186,4.935,18.434,83.0,10.07,38.85
0.092,0.249,4.935,18.433,83.0,10.07,39.04
0.103,0.207,4.933,18.429,83.0,10.07,39.21
-0.118,0.207,4.932,18.428,86.0,10.07,39.35
-0.116,0.249,4.932,18.426,86.0,10.07,39.5
-0.116,0.145,4.931,18.424,86.0,10.07,39.64
-0.082,0.186,4.93,18.422,86.0,10.07,39.72
-0.117,0.207,4.93,18.419,86.0,10.07,39.71
0.092,0.29,4.927,18.417,86.0,10.07,39.79
-0.096,0.249,4.927,18.414,86.0,10.07,39.84
-0.005,0.207,4.927,18.411,86.0,10.07,39.82
0.144,0.207,4.926,18.409,86.0,10.07,39.75
0.185,0.228,4.925,18.406,86.0,10.07,39.69
-0.036,0.186,4.925,18.403,86.0,10.07,39.59
-0.035,0.186,4.923,18.401,93.0,10.07,39.47
-0.03,0.166,4.922,18.399,93.0,10.07,39.37
-0.024,0.145,4.922,18.396,93.0,10.07,39.2
-0.012,0.207,4.921,18.394,93.0,10.07,38.92
-0.077,0.249,4.92,18.393,93.0,10.07,38.82
0.171,0.207,4.918,18.389,93.0,10.07,38.74
0.017,0.249,4.917,18.387,93.0,10.07,38.64
0.119,0.207,4.917,18.386,93.0,10.06,38.49
0.277,0.145,4.917,18.384,93.0,10.07,38.35
0.048,0.249,4.915,18.382,93.0,10.07,38.23
-0.018,0.145,4.915,18.381,89.0,10.07,38.12
-0.01,0.186,4.915,18.379,89.0,10.06,38.0
-0.027,0.186,4.915,18.378,89.0,10.07,37.91
0.023,0.166,4.912,18.376,89.0,10.07,37.64
-0.046,0.124,4.912,18.376,89.0,10.07,37.51
0.214,0.207,4.912,18.373,89.0,10.07,37.51
-0.029,0.228,4.912,18.372,89.0,10.07,37.52
0.082,0.186,4.91,18.371,89.0,10.07,37.47
0.249,0.186,4.91,18.369,89.0,10.06,37.47
0.181,0.207,4.91,18.368,89.0,10.07,37.46
-0.01,0.166,4.91,18.367,89.0,10.07,37.46
-0.003,0.186,4.91,18.366,89.0,10.07,37.44
-0.011,0.166,4.91,18.363,89.0,10.06,37.45
-0.014,0.124,4.907,18.362,89.0,10.07,37.36
0.025,0.228,4.907,18.359,89.0,10.06,37.21
-0.058,0.186,4.907,18.357,89.0,10.07,37.22
0.182,0.186,4.906,18.355,89.0,10.07,37.33
0.01,0.249,4.905,18.352,89.0,10.07,37.35
0.098,0.145,4.905,18.35,89.0,10.06,37.36
0.269,0.145,4.905,18.346,89.0,10.07,37.38
0.102,0.166,4.905,18.342,89.0,10.06,37.39
-0.031,0.166,4.903,18.34,85.0,10.07,37.41
-0.025,0.186,4.902,18.335,85.0,10.07,37.41
-0.043,0.186,4.902,18.332,85.0,10.07,37.44
-0.063,0.186,4.903,18.329,85.0,10.07,37.3
-0.024,0.186,4.902,18.326,85.0,10.06,37.19
-0.052,0.207,4.902,18.324,85.0,10.07,37.22
0.026,0.249,4.9,18.321,85.0,10.07,37.33
0.031,0.207,4.9,18.319,85.0,10.07,37.35
0.003,0.228,4.9,18.316,85.0,10.07,37.36
0.123,0.186,4.897,18.314,85.0,10.06,37.37
0.212,0.166,4.897,18.31,85.0,10.06,37.42
-0.035,0.207,4.897,18.309,85.0,10.06,37.5
-0.071,0.228,4.896,18.309,80.0,10.07,37.63
-0.078,0.269,4.895,18.306,80.0,10.07,37.75
-0.104,0.249,4.895,18.306,80.0,10.07,37.86
-0.118,0.228,4.895,18.306,80.0,10.07,37.84
-0.069,0.207,4.892,18.306,80.0,10.07,38.02
-0.135,0.124,4.892,18.306,80.0,10.06,38.27
0.111,0.228,4.892,18.306,80.0,10.07,38.5
-0.14,0.186,4.891,18.306,80.0,10.07,38.66
-0.011,0.186,4.891,18.306,80.0,10.07,38.88
0.146,0.228,4.89,18.306,80.0,10.07,39.08
0.082,0.228,4.89,18.306,80.0,10.07,39.24
-0.112,0.166,4.89,18.306,80.0,10.06,39.46
-0.105,0.186,4.888,18.306,80.0,10.06,39.65
-0.115,0.186,4.887,18.304,80.0,10.06,39.81
-0.097,0.186,4.887,18.304,80.0,10.06,39.85
-0.111,0.145,4.887,18.304,80.0,10.06,39.91
-0.048,0.228,4.885,18.301,80.0,10.06,40.08
-0.001,0.207,4.885,18.299,80.0,10.06,40.27
-0.034,0.186,4.885,18.295,80.0,10.07,40.4
0.103,0.124,4.885,18.294,80.0,10.06,40.46
0.203,0.207,4.883,18.291,80.0,10.06,40.5
-0.045,0.166,4.882,18.287,80.0,10.07,40.48
-0.08,0.207,4.882,18.286,88.0,10.06,40.41
-0.065,0.186,4.882,18.284,88.0,10.07,40.29
-0.082,0.145,4.88,18.284,88.0,10.07,40.15
-0.059,0.166,4.88,18.285,88.0,10.06,39.89
-0.047,0.145,4.878,18.29,88.0,10.06,39.75
-0.058,0.207,4.877,18.295,88.0,10.06,39.7
0.128,0.186,4.877,18.301,88.0,10.06,39.63
0.016,0.186,4.877,18.311,88.0,10.07,39.5
0.137,0.228,4.876,18.322,88.0,10.06,39.42
0.273,0.186,4.875,18.333,88.0,10.06,39.31
0.022,0.166,4.875,18.347,88.0,10.06,39.17
-0.028,0.249,4.875,18.362,84.0,10.06,39.07
-0.02,0.186,4.873,18.373,84.0,10.06,38.92
-0.035,0.249,4.872,18.385,84.0,10.06,38.73
0.002,0.166,4.872,18.395,84.0,10.06,38.4
-0.04,0.145,4.871,18.405,84.0,10.06,38.23
0.134,0.186,4.87,18.415,84.0,10.06,38.14
0.007,0.166,4.87,18.422,84.0,10.06,38.06
0.042,0.207,4.87,18.427,84.0,10.06,37.94
0.186,0.145,4.87,18.432,84.0,10.06,37.87
0.248,0.228,4.867,18.434,84.0,10.06,37.79
-0.019,0.207,4.867,18.436,84.0,10.06,37.7
-0.038,0.186,4.867,18.436,85.0,10.07,37.66
-0.037,0.249,4.867,18.436,85.0,10.06,37.6
-0.052,0.166,4.867,18.436,85.0,10.06,37.49
-0.027,0.228,4.865,18.434,85.0,10.07,37.28
-0.032,0.249,4.865,18.436,85.0,10.06,37.23
-0.041,0.269,4.865,18.438,85.0,10.06,37.26
0.127,0.186,4.863,18.444,85.0,10.06,37.3
0.017,0.166,4.862,18.45,85.0,10.07,37.29
0.132,0.207,4.862,18.46,85.0,10.07,37.3
0.272,0.228,4.862,18.47,85.0,10.06,37.31
0.009,0.249,4.861,18.48,85.0,10.06,37.31
-0.045,0.166,4.86,18.494,83.0,10.07,37.35
-0.037,0.186,4.86,18.505,83.0,10.07,37.34
-0.052,0.228,4.86,18.519,83.0,10.06,37.34
-0.063,0.186,4.859,18.53,83.0,10.06,37.15
-0.033,0.228,4.858,18.54,83.0,10.07,37.11
-0.039,0.269,4.858,18.546,83.0,10.06,37.16
-0.089,0.124,4.858,18.551,83.0,10.06,37.23
-0.071,0.124,4.855,18.555,83.0,10.06,37.24
0.002,0.145,4.855,18.558,83.0,10.06,37.29
0.112,0.186,4.854,18.56,83.0,10.06,37.37
0.236,0.166,4.853,18.56,83.0,10.06,37.47
-0.014,0.145,4.851,18.556,83.0,10.06,37.78
-0.073,0.207,4.851,18.556,83.0,10.06,37.8
-0.074,0.186,4.85,18.553,83.0,10.06,37.95
-0.097,0.166,4.85,18.547,83.0,10.06,38.08
-0.114,0.166,4.85,18.541,83.0,10.06,38.1
-0.085,0.186,4.849,18.534,83.0,10.06,38.27
-0.105,0.207,4.848,18.525,83.0,10.06,38.52
-0.183,0.228,4.848,18.515,83.0,10.06,38.79
-0.167,0.228,4.848,18.505,83.0,10.06,38.96
-0.047,0.166,4.848,18.495,83.0,10.06,39.18
0.084,0.228,4.848,18.486,83.0,10.06,39.4
0.18,0.207,4.848,18.475,83.0,10.06,39.59
-0.07,0.166,4.846,18.462,83.0,10.06,40.09
-0.104,0.166,4.845,18.463,83.0,10.06,40.11
-0.094,0.207,4.845,18.458,83.0,10.07,40.27
-0.105,0.166,4.845,18.456,83.0,10.06,40.35
-0.062,0.166,4.843,18.455,83.0,10.06,40.34
-0.125,0.207,4.843,18.455,83.0,10.07,40.43
0.124,0.228,4.843,18.458,83.0,10.06,40.49
-0.092,0.207,4.841,18.459,83.0,10.06,40.48
0.037,0.228,4.84,18.463,83.0,10.06,40.4
0.224,0.249,4.84,18.466,83.0,10.06,40.35
0.095,0.207,4.838,18.468,83.0,10.06,40.25
-0.063,0.145,4.838,18.468,83.0,10.06,40.11
-0.049,0.186,4.838,18.47,83.0,10.06,39.99
-0.052,0.249,4.836,18.469,83.0,10.06,39.87
-0.065,0.166,4.836,18.468,83.0,10.06,39.61
-0.011,0.207,4.835,18.465,83.0,10.06,39.35
-0.063,0.186,4.835,18.461,83.0,10.06,39.26
0.211,0.207,4.834,18.456,83.0,10.06,39.18
-0.071,0.166,4.834,18.453,83.0,10.06,39.04
0.046,0.228,4.835,18.448,83.0,10.06,38.9
0.206,0.249,4.835,18.443,83.0,10.06,38.8
0.222,0.145,4.835,18.437,83.0,10.06,38.63
-0.023,0.166,4.835,18.429,83.0,10.06,38.49
-0.029,0.186,4.833,18.424,81.0,10.06,38.36
-0.034,0.207,4.833,18.417,81.0,10.06,38.23
-0.055,0.186,4.833,18.412,81.0,10.06,37.99
-0.009,0.249,4.833,18.409,81.0,10.06,37.7
-0.068,0.207,4.833,18.404,81.0,10.06,37.59
0.177,0.186,4.831,18.402,81.0,10.06,37.55
-0.071,0.186,4.83,18.398,81.0,10.06,37.5
0.028,0.166,4.83,18.398,81.0,10.06,37.43
0.182,0.186,4.83,18.396,81.0,10.06,37.41
0.209,0.166,4.828,18.396,81.0,10.06,37.37
-0.041,0.145,4.828,18.394,81.0,10.06,37.34
-0.051,0.228,4.826,18.393,84.0,10.06,37.33
-0.055,0.228,4.825,18.391,84.0,10.06,37.33
-0.072,0.186,4.825,18.389,84.0,10.06,37.27
-0.074,0.228,4.825,18.387,84.0,10.06,37.1
-0.022,0.166,4.824,18.386,84.0,10.06,37.09
-0.094,0.228,4.824,18.382,84.0,10.06,37.16
0.142,0.207,4.823,18.381,84.0,10.06,37.21
-0.047,0.249,4.823,18.379,84.0,10.06,37.2
0.048,0.207,4.821,18.378,84.0,10.06,37.24
0.222,0.145,4.82,18.378,84.0,10.06,37.25
0.103,0.145,4.82,18.378,84.0,10.06,37.25
-0.07,0.249,4.82,18.381,80.0,10.06,37.26
-0.068,0.207,4.82,18.381,80.0,10.06,37.28
-0.086,0.228,4.818,18.383,80.0,10.06,37.32
-0.109,0.186,4.818,18.383,80.0,10.06,37.23
-0.096,0.166,4.818,18.384,80.0,10.06,37.23
-0.077,0.186,4.816,18.383,80.0,10.06,37.41
-0.147,0.186,4.815,18.383,80.0,10.06,37.66
0.081,0.186,4.815,18.383,80.0,10.06,37.83
-0.07,0.249,4.813,18.383,80.0,10.06,38.03
0.026,0.228,4.813,18.382,80.0,10.06,38.25
0.177,0.228,4.813,18.378,79.0,10.06,38.43
-0.038,0.269,4.81,18.377,79.0,10.06,38.61
-0.132,0.207,4.81,18.376,79.0,10.06,38.86
-0.131,0.166,4.81,18.372,79.0,10.05,39.05
-0.151,0.207,4.81,18.369,79.0,10.05,39.19
-0.131,0.186,4.81,18.364,79.0,10.05,39.2
-0.139,0.207,4.81,18.36,79.0,10.05,39.35
-0.081,0.228,4.808,18.355,79.0,10.05,39.55
-0.023,0.145,4.808,18.347,79.0,10.05,39.78
-0.061,0.249,4.808,18.341,79.0,10.05,39.89
0.071,0.166,4.808,18.335,79.0,10.05,40.02
0.18,0.166,4.805,18.328,79.0,10.05,40.04
-0.065,0.207,4.805,18.321,79.0,10.05,39.98
-0.1,0.186,4.805,18.315,85.0,10.05,39.92
-0.091,0.186,4.805,18.31,85.0,10.05,39.8
-0.104,0.166,4.805,18.302,85.0,10.05,39.64
-0.05,0.166,4.803,18.297,85.0,10.05,39.36
-0.124,0.207,4.804,18.29,85.0,10.06,39.23
0.133,0.207,4.805,18.283,85.0,10.06,39.15
-0.081,0.186,4.805,18.277,85.0,10.06,39.05
0.03,0.186,4.803,18.273,85.0,10.06,38.9
0.217,0.124,4.803,18.268,85.0,10.06,38.8
0.106,0.145,4.803,18.263,85.0,10.06,38.66
-0.06,0.186,4.803,18.258,88.0,10.06,38.5
-0.049,0.207,4.8,18.254,88.0,10.06,38.36
-0.061,0.186,4.8,18.25,88.0,10.06,38.23
-0.015,0.207,4.8,18.248,88.0,10.06,37.96
-0.08,0.207,4.8,18.245,88.0,10.06,37.7
0.176,0.228,4.8,18.244,88.0,10.06,37.61
-0.088,0.269,4.798,18.245,88.0,10.06,37.58
0.021,0.145,4.798,18.25,88.0,10.06,37.5
0.178,0.186,4.798,18.261,88.0,10.06,37.43
0.177,0.29,4.798,18.276,88.0,10.06,37.4
-0.058,0.186,4.798,18.297,90.0,10.06,37.35
-0.063,0.186,4.796,18.326,90.0,10.06,37.33
-0.07,0.166,4.795,18.361,90.0,10.06,37.33
-0.058,0.249,4.795,18.401,90.0,10.06,37.26
-0.062,0.186,4.795,18.445,90.0,10.06,37.11
-0.099,0.207,4.794,18.495,90.0,10.06,37.1
0.102,0.186,4.793,18.544,90.0,10.06,37.18
-0.026,0.249,4.793,18.592,90.0,10.06,37.23
0.084,0.186,4.793,18.64,90.0,10.06,37.25
0.222,0.186,4.79,18.688,90.0,10.06,37.27
-0.03,0.145,4.79,18.729,90.0,10.06,37.27
-0.087,0.311,4.79,18.765,90.0,10.06,37.3
-0.088,0.207,4.788,18.799,90.0,10.06,37.28
-0.106,0.186,4.788,18.829,90.0,10.06,37.29
-0.063,0.207,4.788,18.854,90.0,10.06,37.11
-0.146,0.228,4.788,18.874,90.0,10.06,37.08
0.084,0.186,4.785,18.891,90.0,10.06,37.2
-0.106,0.186,4.785,18.901,90.0,10.06,37.38
-0.008,0.166,4.785,18.905,90.0,10.06,37.47
0.163,0.228,4.783,18.901,89.0,10.06,37.62
0.031,0.207,4.783,18.895,89.0,10.06,37.78
-0.129,0.166,4.783,18.884,89.0,10.06,37.95
-0.126,0.207,4.783,18.872,89.0,10.06,38.12
-0.142,0.166,4.783,18.857,89.0,10.06,38.34
-0.114,0.249,4.781,18.839,89.0,10.06,38.4
-0.154,0.29,4.78,18.823,89.0,10.06,38.51
0.036,0.269,4.78,18.802,89.0,10.06,38.77
-0.164,0.228,4.78,18.78,89.0,10.06,39.06
-0.077,0.207,4.78,18.759,89.0,10.06,39.24
0.064,0.207,4.78,18.737,89.0,10.06,39.41
0.112,0.186,4.78,18.716,89.0,10.06,39.62
-0.124,0.228,4.779,18.694,89.0,10.06,39.78
-0.134,0.228,4.778,18.677,89.0,10.06,39.95
-0.128,0.228,4.778,18.657,89.0,10.06,40.12
-0.09,0.228,4.778,18.637,89.0,10.06,40.19
-0.147,0.207,4.78,18.62,89.0,10.06,40.16
0.138,0.207,4.778,18.602,89.0,10.06,40.17
-0.167,0.207,4.778,18.585,89.0,10.06,40.17
-0.013,0.145,4.778,18.567,89.0,10.06,40.09
0.152,0.207,4.778,18.552,89.0,10.06,39.97
0.12,0.249,4.778,18.538,89.0,10.06,39.86
-0.082,0.249,4.778,18.525,94.0,10.06,39.74
-0.075,0.186,4.778,18.515,94.0,10.06,39.57
-0.074,0.207,4.778,18.506,94.0,10.06,39.44
-0.05,0.207,4.775,18.504,94.0,10.06,39.21
-0.069,0.207,4.775,18.504,94.0,10.06,38.92
-0.017,0.228,4.775,18.512,94.0,10.05,38.78
0.075,0.186,4.775,18.525,94.0,10.06,38.71
0.0,0.207,4.775,18.548,94.0,10.06,38.59
0.135,0.145,4.775,18.577,94.0,10.06,38.43
0.245,0.186,4.775,18.612,94.0,10.06,38.3
-0.022,0.186,4.775,18.653,94.0,10.06,38.16
-0.052,0.207,4.775,18.7,89.0,10.06,38.03
-0.047,0.207,4.775,18.747,89.0,10.06,37.91
-0.065,0.145,4.776,18.795,89.0,10.06,37.75
-0.015,0.228,4.775,18.836,89.0,10.06,37.46
-0.081,0.124,4.775,18.877,89.0,10.06,37.36
0.184,0.249,4.775,18.911,89.0,10.05,37.34
-0.087,0.207,4.774,18.941,89.0,10.06,37.34
0.027,0.145,4.773,18.969,89.0,10.06,37.3
0.194,0.207,4.773,18.992,89.0,10.06,37.3
0.182,0.186,4.773,19.011,89.0,10.05,37.29
-0.045,0.228,4.771,19.023,89.0,10.05,37.28
-0.046,0.228,4.771,19.031,87.0,10.06,37.3
-0.05,0.166,4.771,19.035,87.0,10.05,37.3
-0.064,0.186,4.771,19.032,87.0,10.06,37.22
-0.072,0.186,4.769,19.028,87.0,10.06,37.06
-0.046,0.186,4.768,19.018,87.0,10.05,37.08
-0.032,0.207,4.768,19.002,87.0,10.05,37.16
-0.074,0.228,4.768,18.985,87.0,10.06,37.2
0.142,0.228,4.768,18.965,87.0,10.06,37.2
0.004,0.249,4.766,18.945,87.0,10.05,37.24
0.101,0.228,4.766,18.921,87.0,10.06,37.25
0.256,0.145,4.766,18.899,87.0,10.06,37.28
0.017,0.166,4.766,18.877,87.0,10.05,37.39
-0.063,0.207,4.766,18.854,74.0,10.05,37.54
-0.065,0.228,4.766,18.831,74.0,10.06,37.65
-0.086,0.228,4.763,18.809,74.0,10.05,37.79
-0.108,0.228,4.763,18.787,74.0,10.06,37.78
-0.101,0.207,4.763,18.766,74.0,10.06,37.96
-0.07,0.207,4.763,18.746,74.0,10.05,38.2
-0.152,0.269,4.762,18.726,74.0,10.06,38.45
0.094,0.228,4.761,18.708,74.0,10.06,38.63
-0.089,0.186,4.761,18.69,74.0,10.06,38.86
0.009,0.228,4.761,18.674,74.0,10.06,39.06
0.175,0.145,4.758,18.66,74.0,10.05,39.22
-0.007,0.207,4.758,18.645,74.0,10.05,39.42
-0.145,0.207,4.758,18.631,76.0,10.05,39.65
-0.141,0.249,4.758,18.621,76.0,10.05,39.82
-0.15,0.228,4.758,18.611,76.0,10.05,39.96
-0.161,0.186,4.758,18.601,76.0,10.05,39.99
-0.101,0.249,4.758,18.592,76.0,10.05,40.09
-0.155,0.29,4.757,18.584,76.0,10.05,40.2
0.112,0.228,4.756,18.577,76.0,10.05,40.28
-0.158,0.207,4.756,18.571,76.0,10.05,40.2
-0.012,0.166,4.756,18.568,76.0,10.05,40.1
0.166,0.207,4.754,18.563,76.0,10.05,39.97
0.103,0.207,4.753,18.558,76.0,10.05,39.8
-0.1,0.145,4.753,18.556,82.0,10.05,39.66
-0.094,0.228,4.753,18.551,82.0,10.05,39.53
-0.097,0.228,4.753,18.548,82.0,10.05,39.38
-0.065,0.166,4.753,18.543,82.0,10.05,39.11
-0.056,0.166,4.753,18.54,82.0,10.05,38.85
-0.107,0.166,4.753,18.536,82.0,10.05,38.7
0.112,0.249,4.752,18.531,82.0,10.05,38.59
-0.085,0.145,4.751,18.526,82.0,10.05,38.46
-0.008,0.269,4.751,18.516,82.0,10.05,38.18
0.144,0.269,4.749,18.515,82.0,10.05,38.17
0.205,0.207,4.748,18.51,82.0,10.05,38.03
-0.054,0.166,4.748,18.505,82.0,10.05,37.88
-0.064,0.228,4.748,18.505,82.0,10.05,37.78
-0.059,0.249,4.746,18.505,82.0,10.05,37.69
-0.076,0.186,4.746,18.509,82.0,10.06,37.52
-0.036,0.249,4.746,18.52,82.0,10.05,37.28
-0.071,0.228,4.744,18.534,82.0,10.05,37.21
0.072,0.207,4.743,18.552,82.0,10.05,37.23
-0.01,0.186,4.743,18.577,82.0,10.05,37.26
0.009,0.228,4.741,18.608,82.0,10.05,37.25
0.15,0.166,4.741,18.645,82.0,10.05,37.27
0.237,0.186,4.741,18.683,82.0,10.05,37.27
-0.03,0.166,4.738,18.721,82.0,10.05,37.26
-0.051,0.145,4.738,18.761,83.0,10.05,37.29
-0.047,0.186,4.738,18.798,83.0,10.05,37.29
-0.064,0.228,4.737,18.833,83.0,10.05,37.26
-0.04,0.207,4.736,18.863,83.0,10.05,37.09
-0.043,0.207,4.736,18.887,83.0,10.05,37.07
-0.05,0.269,4.736,18.905,83.0,10.05,37.16
0.107,0.249,4.736,18.92,83.0,10.05,37.3
-0.001,0.207,4.734,18.93,83.0,10.05,37.42
0.113,0.145,4.734,18.936,83.0,10.05,37.59
0.251,0.186,4.733,18.938,83.0,10.05,37.75
0.0,0.228,4.733,18.934,83.0,10.05,37.93
-0.062,0.166,4.731,18.927,83.0,10.05,38.15
-0.064,0.269,4.731,18.917,83.0,10.05,38.36
-0.09,0.269,4.731,18.904,83.0,10.05,38.53
-0.05,0.207,4.729,18.89,83.0,10.05,38.58
-0.11,0.207,4.728,18.873,83.0,10.05,38.77
0.148,0.311,4.728,18.853,83.0,10.05,39.02
-0.157,0.186,4.728,18.833,83.0,10.05,39.27
-0.01,0.249,4.728,18.813,83.0,10.05,39.43
0.151,0.207,4.727,18.795,83.0,10.05,39.62
0.137,0.186,4.726,18.774,83.0,10.05,39.81
-0.081,0.166,4.726,18.754,87.0,10.05,39.93
-0.075,0.186,4.726,18.734,87.0,10.05,40.09
-0.071,0.166,4.724,18.716,87.0,10.05,40.25
-0.028,0.166,4.723,18.697,87.0,10.05,40.23
-0.084,0.145,4.723,18.678,87.0,10.05,40.12
0.191,0.166,4.723,18.659,87.0,10.05,40.08
-0.112,0.145,4.723,18.642,87.0,10.05,40.03
0.039,0.228,4.723,18.624,87.0,10.05,39.91
0.202,0.186,4.721,18.608,87.0,10.05,39.78
0.191,0.207,4.721,18.593,87.0,10.05,39.69
-0.034,0.207,4.721,18.58,87.0,10.05,39.56
-0.034,0.166,4.718,18.564,93.0,10.05,39.41
-0.036,0.145,4.718,18.552,93.0,10.05,39.29
-0.021,0.207,4.718,18.541,93.0,10.05,39.06
-0.015,0.145,4.718,18.53,93.0,10.05,38.76
-0.054,0.166,4.718,18.52,93.0,10.05,38.62
0.167,0.207,4.716,18.514,93.0,10.05,38.55
0.028,0.166,4.716,18.509,93.0,10.05,38.44
0.141,0.166,4.716,18.508,93.0,10.05,38.29
0.288,0.186,4.713,18.509,93.0,10.05,38.18
0.035,0.249,4.713,18.511,93.0,10.05,38.05
-0.023,0.228,4.713,18.517,88.0,10.05,37.93
-0.019,0.166,4.711,18.525,88.0,10.05,37.8
-0.032,0.186,4.711,18.532,88.0,10.05,37.67
0.013,0.207,4.711,18.542,88.0,10.05,37.39
-0.068,0.166,4.711,18.548,88.0,10.05,37.28
0.176,0.207,4.708,18.554,88.0,10.05,37.27
-0.025,0.186,4.708,18.561,88.0,10.05,37.3
0.071,0.166,4.708,18.566,88.0,10.05,37.27
0.25,0.207,4.708,18.568,88.0,10.05,37.27
0.125,0.166,4.707,18.57,88.0,10.05,37.26
-0.034,0.186,4.706,18.568,90.0,10.05,37.26
-0.029,0.269,4.706,18.567,90.0,10.05,37.26
-0.049,0.207,4.706,18.563,90.0,10.05,37.29
-0.015,0.249,4.706,18.558,90.0,10.05,37.15
-0.071,0.186,4.704,18.551,90.0,10.05,37.06
0.135,0.166,4.703,18.542,90.0,10.05,37.12
-0.077,0.124,4.703,18.532,90.0,10.05,37.28
0.002,0.166,4.703,18.522,90.0,10.05,37.39
0.139,0.166,4.702,18.512,90.0,10.05,37.51
0.175,0.166,4.701,18.5,90.0,10.05,37.67
-0.064,0.249,4.701,18.489,90.0,10.05,37.84
-0.079,0.186,4.701,18.477,89.0,10.05,38.01
-0.092,0.166,4.699,18.469,89.0,10.05,38.23
-0.08,0.269,4.698,18.457,89.0,10.05,38.35
-0.095,0.207,4.698,18.45,89.0,10.05,38.38
-0.059,0.228,4.696,18.442,89.0,10.05,38.6
0.007,0.228,4.696,18.433,89.0,10.05,38.87
-0.049,0.228,4.696,18.425,89.0,10.05,39.06
0.07,0.186,4.693,18.419,89.0,10.05,39.22
0.166,0.207,4.693,18.413,89.0,10.05,39.4
-0.073,0.207,4.693,18.407,89.0,10.05,39.58
-0.11,0.207,4.693,18.402,90.0,10.05,39.73
-0.108,0.29,4.692,18.397,90.0,10.05,39.9
-0.074,0.207,4.692,18.392,90.0,10.05,40.02
-0.125,0.186,4.693,18.387,90.0,10.05,40.01
0.138,0.228,4.691,18.382,90.0,10.05,40.12
-0.158,0.186,4.691,18.374,90.0,10.05,40.24
-0.014,0.207,4.691,18.369,90.0,10.05,40.27
0.137,0.145,4.691,18.362,90.0,10.05,40.16
0.136,0.145,4.688,18.357,90.0,10.05,40.09
-0.077,0.207,4.688,18.35,95.0,10.05,39.98
-0.073,0.207,4.688,18.343,95.0,10.05,39.84
-0.074,0.166,4.687,18.337,95.0,10.05,39.71
-0.047,0.249,4.686,18.331,95.0,10.05,39.49
-0.078,0.145,4.686,18.323,95.0,10.05,39.2
