ECG,EMG,foot GSR,hand GSr,HR,marker,RESP
0.016,0.03625,8.764,5.676,88.0,10.85,43.47
-0.098,0.05175,8.77,5.681,88.0,10.85,43.02
0.273,0.07775,8.777,5.686,88.0,10.85,42.56
-0.094,0.0415,8.787,5.694,88.0,10.85,42.57
0.018,0.03625,8.796,5.705,88.0,10.85,42.64
0.181,0.05175,8.804,5.72,88.0,10.85,42.1
0.06,0.03625,8.811,5.74,88.0,10.85,41.39
-0.061,0.026,8.821,5.764,91.0,10.85,41.05
-0.044,0.0465,8.83,5.796,91.0,10.85,40.97
-0.052,0.0415,8.839,5.834,91.0,10.85,40.8
-0.009,0.06725,8.851,5.878,91.0,10.85,40.35
-0.051,0.0465,8.866,5.925,91.0,10.85,40.1
0.285,0.0725,8.886,5.973,91.0,10.85,40.07
-0.148,0.09325,8.912,6.028,91.0,10.85,40.18
-0.027,0.06725,8.943,6.08,91.0,10.85,40.43
0.115,0.06225,8.984,6.131,91.0,10.85,40.37
0.098,0.0465,9.028,6.183,91.0,10.85,40.54
-0.065,0.06225,9.083,6.236,89.0,10.85,40.99
-0.067,0.06725,9.137,6.283,89.0,10.85,41.53
-0.07,0.0415,9.191,6.324,89.0,10.85,42.09
-0.075,0.06225,9.248,6.366,89.0,10.85,42.56
-0.037,0.0725,9.306,6.405,89.0,10.85,43.04
-0.038,0.05175,9.359,6.443,89.0,10.85,43.55
0.109,0.1035,9.409,6.463,89.0,10.85,44.06
0.027,0.0985,9.456,6.473,89.0,10.85,44.5
0.077,0.0465,9.503,6.487,89.0,10.85,44.94
0.095,0.05175,9.548,6.502,89.0,10.85,45.39
-0.059,0.08275,9.587,6.519,89.0,10.85,45.78
-0.083,0.05175,9.622,6.532,90.0,10.84,46.2
-0.075,0.05175,9.679,6.529,90.0,10.85,46.73
-0.047,0.06225,9.682,6.528,90.0,10.85,46.75
-0.074,0.057,9.708,6.522,90.0,10.84,47.0
0.2,0.114,9.727,6.51,90.0,10.85,47.3
-0.119,0.088,9.746,6.5,90.0,10.84,47.56
-0.045,0.057,9.759,6.489,90.0,10.84,47.77
0.081,0.03625,9.768,6.48,90.0,10.85,47.97
0.064,0.0415,9.773,6.469,90.0,10.85,48.15
-0.072,0.0415,9.775,6.455,95.0,10.85,48.31
-0.058,0.0465,9.775,6.443,95.0,10.85,48.41
-0.061,0.0465,9.772,6.431,95.0,10.85,48.31
-0.028,0.0465,9.768,6.417,95.0,10.85,47.98
-0.059,0.057,9.759,6.402,95.0,10.85,47.7
0.258,0.06225,9.752,6.388,95.0,10.85,47.36
-0.125,0.0985,9.744,6.376,95.0,10.85,46.82
-0.034,0.0415,9.736,6.362,95.0,10.85,46.03
0.118,0.0415,9.728,6.351,95.0,10.85,44.96
0.106,0.05175,9.719,6.341,95.0,10.85,44.0
-0.061,0.0725,9.712,6.331,93.0,10.85,43.19
-0.059,0.03625,9.702,6.321,93.0,10.85,42.51
-0.056,0.05175,9.692,6.311,93.0,10.85,42.0
-0.033,0.088,9.68,6.301,93.0,10.85,41.5
-0.049,0.0465,9.67,6.291,93.0,10.85,41.18
0.168,0.07775,9.66,6.279,93.0,10.85,41.07
-0.031,0.0725,9.65,6.269,93.0,10.85,41.1
-0.045,0.057,9.64,6.259,93.0,10.85,41.28
0.101,0.057,9.63,6.249,93.0,10.85,41.58
0.115,0.057,9.62,6.239,93.0,10.85,42.01
-0.065,0.06225,9.61,6.231,93.0,10.85,42.53
-0.076,0.0465,9.6,6.222,91.0,10.85,43.06
-0.074,0.05175,9.592,6.214,91.0,10.85,43.56
-0.073,0.0415,9.582,6.206,91.0,10.85,43.93
-0.051,0.06225,9.573,6.197,91.0,10.85,44.34
-0.021,0.06225,9.563,6.189,91.0,10.85,44.83
0.076,0.09325,9.553,6.182,91.0,10.85,45.32
-0.091,0.057,9.544,6.175,91.0,10.85,45.74
0.035,0.057,9.536,6.169,91.0,10.85,46.11
0.07,0.05175,9.528,6.164,91.0,10.85,46.52
-0.107,0.09325,9.521,6.156,91.0,10.85,46.89
-0.119,0.1035,9.512,6.15,91.0,10.85,47.24
-0.111,0.08275,9.505,6.144,91.0,10.85,47.5
-0.073,0.0985,9.497,6.139,91.0,10.85,47.6
-0.163,0.0985,9.49,6.134,91.0,10.85,47.79
0.179,0.13975,9.476,6.121,91.0,10.85,48.86
-0.237,0.1035,9.475,6.121,91.0,10.84,48.93
-0.097,0.0985,9.467,6.116,91.0,10.85,49.67
0.038,0.08275,9.46,6.111,97.0,10.84,50.53
-0.066,0.0985,9.453,6.106,97.0,10.84,51.48
-0.173,0.07775,9.448,6.101,97.0,10.85,52.3
-0.159,0.09325,9.443,6.097,97.0,10.84,52.94
-0.153,0.0725,9.435,6.092,97.0,10.84,53.23
-0.113,0.06225,9.43,6.087,97.0,10.84,53.38
-0.153,0.07775,9.425,6.082,97.0,10.84,53.69
0.064,0.09325,9.418,6.077,97.0,10.84,53.66
-0.144,0.05175,9.411,6.072,97.0,10.85,53.44
-0.015,0.05175,9.405,6.068,97.0,10.84,53.09
0.041,0.0725,9.4,6.064,97.0,10.84,52.78
-0.112,0.057,9.395,6.059,97.0,10.84,52.47
-0.132,0.057,9.39,6.054,97.0,10.85,51.82
-0.115,0.06725,9.385,6.049,97.0,10.84,50.93
-0.132,0.1035,9.379,6.046,97.0,10.84,49.72
-0.049,0.06725,9.375,6.042,97.0,10.84,48.68
-0.165,0.06225,9.37,6.037,97.0,10.84,47.84
0.211,0.0725,9.364,6.032,97.0,10.84,47.11
-0.134,0.06725,9.358,6.027,97.0,10.84,46.4
-0.022,0.05175,9.355,6.024,97.0,10.84,45.76
0.138,0.07775,9.351,6.019,89.0,10.84,45.24
-0.014,0.057,9.346,6.017,89.0,10.85,44.78
-0.12,0.06725,9.342,6.012,89.0,10.84,44.41
-0.096,0.057,9.338,6.009,89.0,10.84,44.08
-0.1,0.07775,9.333,6.005,89.0,10.84,43.77
-0.036,0.057,9.331,6.001,89.0,10.84,43.43
-0.156,0.0725,9.327,5.997,89.0,10.84,43.3
0.176,0.10875,9.321,5.992,89.0,10.84,43.23
-0.107,0.057,9.318,5.989,89.0,10.84,43.22
0.011,0.088,9.313,5.986,89.0,10.84,43.18
0.119,0.057,9.31,5.982,89.0,10.84,43.16
-0.057,0.06225,9.306,5.977,89.0,10.84,43.14
-0.116,0.0725,9.303,5.975,94.0,10.84,43.15
-0.089,0.0725,9.298,5.971,94.0,10.84,43.16
-0.072,0.06725,9.295,5.967,94.0,10.84,43.14
-0.064,0.07775,9.291,5.965,94.0,10.84,43.11
0.009,0.07775,9.288,5.96,94.0,10.84,43.2
-0.008,0.0725,9.283,5.957,94.0,10.84,43.36
-0.093,0.057,9.278,5.954,94.0,10.84,43.49
0.047,0.0725,9.276,5.951,96.0,10.84,43.54
0.069,0.057,9.273,5.949,96.0,10.84,43.5
-0.099,0.0415,9.269,5.946,96.0,10.84,43.43
-0.1,0.06725,9.266,5.942,96.0,10.84,43.35
-0.095,0.05175,9.263,5.94,96.0,10.84,43.26
-0.028,0.0725,9.259,5.937,96.0,10.84,43.01
-0.114,0.057,9.256,5.934,96.0,10.84,42.83
0.229,0.088,9.253,5.93,96.0,10.84,42.77
-0.169,0.06725,9.249,5.927,96.0,10.84,42.78
-0.017,0.06725,9.244,5.925,96.0,10.84,42.75
0.127,0.06725,9.241,5.921,96.0,10.84,42.7
0.046,0.06725,9.236,5.918,96.0,10.84,42.54
-0.066,0.057,9.234,5.915,96.0,10.84,42.3
-0.049,0.06725,9.231,5.913,96.0,10.84,41.98
-0.06,0.06225,9.228,5.91,96.0,10.84,41.61
0.031,0.0465,9.224,5.908,96.0,10.84,41.2
-0.106,0.057,9.22,5.904,96.0,10.84,40.91
0.209,0.06225,9.216,5.9,96.0,10.84,40.71
-0.044,0.05175,9.211,5.898,96.0,10.84,40.58
0.055,0.0415,9.209,5.895,96.0,10.84,40.46
0.154,0.06725,9.205,5.892,96.0,10.84,40.27
0.028,0.05175,9.203,5.889,96.0,10.84,40.14
-0.023,0.10875,9.199,5.885,95.0,10.84,39.98
-0.025,0.0465,9.196,5.883,95.0,10.84,39.6
-0.053,0.057,9.193,5.88,95.0,10.84,39.25
0.047,0.05175,9.189,5.878,95.0,10.84,39.2
-0.077,0.057,9.186,5.874,95.0,10.84,39.54
0.219,0.06725,9.183,5.872,95.0,10.84,39.89
-0.035,0.05175,9.179,5.868,95.0,10.84,40.71
0.061,0.06225,9.177,5.865,95.0,10.84,41.7
0.151,0.0465,9.174,5.863,95.0,10.84,42.04
0.059,0.0465,9.171,5.86,95.0,10.84,41.9
-0.001,0.05175,9.167,5.858,95.0,10.84,41.76
-0.001,0.0415,9.166,5.855,95.0,10.84,41.61
-0.027,0.057,9.162,5.853,95.0,10.84,41.32
0.04,0.0415,9.159,5.849,91.0,10.84,40.81
-0.021,0.0465,9.157,5.847,91.0,10.84,40.7
0.273,0.06725,9.154,5.845,91.0,10.84,40.91
-0.041,0.057,9.152,5.842,91.0,10.84,41.12
0.057,0.057,9.148,5.84,91.0,10.84,41.11
0.129,0.057,9.146,5.837,91.0,10.84,41.03
0.081,0.05175,9.144,5.833,91.0,10.84,40.97
-0.003,0.0415,9.142,5.832,91.0,10.84,40.93
0.0,0.06225,9.137,5.827,91.0,10.84,40.89
-0.025,0.06725,9.137,5.827,91.0,10.84,40.89
-0.02,0.0465,9.133,5.825,90.0,10.84,40.71
0.046,0.057,9.132,5.822,90.0,10.83,40.62
0.016,0.0725,9.129,5.82,90.0,10.83,40.65
0.131,0.0985,9.126,5.818,90.0,10.84,40.71
-0.003,0.0415,9.123,5.815,90.0,10.83,40.65
0.101,0.06725,9.119,5.812,90.0,10.84,40.55
0.12,0.03625,9.117,5.808,90.0,10.84,40.46
0.012,0.057,9.114,5.807,90.0,10.83,40.38
0.002,0.0465,9.111,5.806,89.0,10.83,40.33
-0.014,0.03625,9.108,5.802,89.0,10.84,40.27
-0.038,0.0465,9.104,5.802,89.0,10.83,40.08
0.058,0.05175,9.102,5.802,89.0,10.83,39.96
-0.061,0.05175,9.099,5.8,89.0,10.83,39.98
0.213,0.05175,9.097,5.8,89.0,10.84,40.03
-0.039,0.05175,9.094,5.797,89.0,10.83,40.04
0.054,0.03625,9.09,5.797,89.0,10.83,40.01
0.13,0.0415,9.087,5.797,89.0,10.83,39.99
0.042,0.0465,9.084,5.8,89.0,10.83,39.97
-0.016,0.0465,9.081,5.8,89.0,10.83,39.98
-0.02,0.0415,9.077,5.8,89.0,10.83,39.97
-0.05,0.057,9.075,5.8,89.0,10.83,39.92
0.02,0.05175,9.072,5.8,89.0,10.83,39.8
0.021,0.05175,9.07,5.798,89.0,10.83,39.79
-0.09,0.0415,9.067,5.797,89.0,10.83,39.87
0.196,0.09325,9.065,5.795,89.0,10.83,39.91
-0.044,0.03625,9.061,5.795,89.0,10.83,39.92
0.049,0.05175,9.056,5.791,89.0,10.84,39.92
0.116,0.05175,9.056,5.791,89.0,10.83,39.92
0.018,0.0415,9.055,5.788,89.0,10.83,39.92
-0.028,0.06225,9.052,5.786,85.0,10.83,39.94
-0.026,0.05175,9.05,5.783,85.0,10.83,39.94
-0.057,0.05175,9.046,5.781,85.0,10.83,39.88
-0.058,0.0465,9.044,5.778,85.0,10.83,39.77
0.019,0.0725,9.041,5.775,85.0,10.83,39.79
-0.059,0.0415,9.039,5.773,85.0,10.83,39.95
0.145,0.088,9.035,5.77,85.0,10.83,40.13
-0.04,0.057,9.032,5.77,85.0,10.83,40.14
0.067,0.057,9.03,5.766,85.0,10.83,40.07
0.108,0.0415,9.026,5.763,85.0,10.83,39.96
-0.004,0.0465,9.024,5.76,85.0,10.83,39.84
-0.024,0.03625,9.02,5.757,86.0,10.83,39.77
-0.035,0.06725,9.017,5.756,86.0,10.83,39.58
-0.062,0.0465,9.014,5.753,86.0,10.83,39.26
0.008,0.057,9.011,5.742,86.0,10.83,39.03
0.007,0.06725,9.008,5.732,86.0,10.83,39.04
-0.081,0.05175,9.005,5.724,86.0,10.83,39.09
0.193,0.11925,9.0,5.703,86.0,10.83,39.1
-0.04,0.06725,8.998,5.691,86.0,10.83,39.09
0.06,0.0415,8.993,5.689,86.0,10.83,39.15
0.119,0.03625,8.992,5.689,86.0,10.83,39.16
0.007,0.0415,8.989,5.685,86.0,10.82,39.23
-0.031,0.0415,8.987,5.687,83.0,10.82,39.33
-0.051,0.057,8.984,5.705,83.0,10.82,39.42
-0.063,0.05175,8.98,5.719,83.0,10.82,39.38
-0.059,0.0415,8.978,5.72,83.0,10.82,39.3
0.02,0.0465,8.975,5.715,83.0,10.82,39.37
-0.059,0.05175,8.973,5.7,83.0,10.82,39.47
0.161,0.0725,8.965,5.674,83.0,10.82,39.55
-0.038,0.06225,8.967,5.673,83.0,10.82,39.56
0.071,0.05175,8.964,5.681,83.0,10.83,39.57
0.112,0.0465,8.96,5.691,83.0,10.82,39.57
-0.011,0.0415,8.958,5.696,83.0,10.82,39.59
-0.035,0.057,8.954,5.698,85.0,10.82,39.63
-0.037,0.06225,8.952,5.698,85.0,10.82,39.65
-0.054,0.057,8.949,5.698,85.0,10.82,39.57
-0.088,0.057,8.945,5.698,85.0,10.82,39.44
-0.008,0.06225,8.943,5.695,85.0,10.82,39.48
-0.117,0.057,8.94,5.695,85.0,10.82,39.55
0.178,0.088,8.938,5.693,85.0,10.82,39.54
-0.058,0.171,8.934,5.693,85.0,10.82,39.45
0.049,0.1555,8.93,5.693,85.0,10.82,39.66
0.119,0.08275,8.928,5.695,83.0,10.82,39.9
0.001,0.0415,8.925,5.694,83.0,10.82,40.04
-0.042,0.05175,8.923,5.689,83.0,10.82,40.17
-0.037,0.0465,8.921,5.685,83.0,10.82,40.18
-0.068,0.05175,8.918,5.681,83.0,10.82,40.08
-0.042,0.05175,8.916,5.676,83.0,10.82,39.96
-0.022,0.05175,8.913,5.671,83.0,10.82,40.06
0.168,0.11925,8.91,5.669,83.0,10.82,40.24
-0.066,0.0465,8.907,5.664,83.0,10.82,40.44
-0.022,0.08275,8.905,5.66,83.0,10.82,40.69
0.104,0.0725,8.902,5.663,83.0,10.82,40.9
0.091,0.0465,8.898,5.66,83.0,10.82,41.03
-0.047,0.06225,8.896,5.658,86.0,10.82,41.2
-0.054,0.0725,8.893,5.656,86.0,10.82,41.32
-0.069,0.0465,8.891,5.656,86.0,10.82,41.36
-0.093,0.06225,8.887,5.652,86.0,10.82,41.26
-0.016,0.05175,8.883,5.648,86.0,10.82,41.19
-0.102,0.0465,8.882,5.642,86.0,10.82,41.18
0.216,0.0725,8.878,5.627,86.0,10.82,41.18
-0.119,0.03625,8.876,5.617,86.0,10.82,41.21
-0.001,0.05175,8.873,5.616,86.0,10.82,41.23
0.107,0.07775,8.87,5.617,87.0,10.82,41.41
0.021,0.06225,8.867,5.621,87.0,10.82,41.65
-0.071,0.06225,8.865,5.623,87.0,10.82,41.8
-0.058,0.0465,8.862,5.626,87.0,10.82,41.84
-0.078,0.0415,8.86,5.626,87.0,10.82,41.84
-0.079,0.06725,8.857,5.623,87.0,10.82,41.69
-0.014,0.08275,8.853,5.622,87.0,10.82,41.63
-0.047,0.0725,8.851,5.619,87.0,10.82,41.68
0.131,0.114,8.847,5.616,87.0,10.82,41.74
-0.054,0.0725,8.843,5.613,87.0,10.82,41.73
0.067,0.0725,8.841,5.609,87.0,10.82,41.7
0.109,0.0465,8.836,5.607,88.0,10.82,41.72
-0.04,0.08275,8.831,5.606,88.0,10.82,41.7
-0.055,0.0985,8.826,5.602,88.0,10.82,41.71
-0.052,0.1035,8.823,5.599,88.0,10.82,41.76
-0.076,0.08275,8.819,5.596,88.0,10.82,41.75
-0.026,0.1035,8.818,5.592,88.0,10.82,41.69
-0.054,0.06225,8.815,5.589,88.0,10.82,41.79
0.281,0.19175,8.814,5.584,88.0,10.82,42.0
-0.152,0.20725,8.811,5.582,88.0,10.82,42.2
-0.012,0.05175,8.809,5.578,88.0,10.82,42.26
0.118,0.13475,8.805,5.576,88.0,10.82,42.21
0.079,0.12425,8.801,5.574,88.0,10.82,42.16
-0.048,0.10875,8.8,5.573,86.0,10.82,42.17
-0.042,0.1555,8.798,5.572,86.0,10.82,42.26
-0.049,0.057,8.795,5.569,86.0,10.82,42.37
-0.073,0.10875,8.795,5.568,86.0,10.82,42.33
-0.001,0.0985,8.793,5.567,86.0,10.82,42.39
-0.075,0.13975,8.791,5.565,86.0,10.82,42.43
0.272,0.2485,8.789,5.564,86.0,10.82,42.48
-0.121,0.088,8.784,5.564,86.0,10.82,42.47
0.009,0.1035,8.781,5.561,86.0,10.82,42.46
0.13,0.057,8.78,5.56,86.0,10.82,42.46
0.049,0.0465,8.776,5.557,86.0,10.82,42.46
-0.056,0.0465,8.774,5.556,86.0,10.82,42.44
-0.039,0.06725,8.771,5.554,86.0,10.82,42.41
-0.055,0.03625,8.769,5.552,86.0,10.82,42.41
-0.078,0.031,8.766,5.549,86.0,10.82,42.29
-0.056,0.06225,8.765,5.546,86.0,10.82,42.2
-0.013,0.05175,8.761,5.544,86.0,10.82,42.13
0.05,0.06725,8.759,5.541,86.0,10.82,42.13
0.085,0.08275,8.756,5.539,86.0,10.82,42.06
-0.034,0.03625,8.753,5.541,86.0,10.82,42.0
0.092,0.0415,8.755,5.541,86.0,10.82,41.95
0.122,0.057,8.754,5.541,86.0,10.82,41.91
-0.032,0.05175,8.751,5.539,86.0,10.82,41.88
-0.043,0.05175,8.749,5.54,81.0,10.82,41.83
-0.04,0.0415,8.744,5.541,81.0,10.82,41.8
-0.066,0.031,8.742,5.541,81.0,10.82,41.72
-0.08,0.05175,8.738,5.54,81.0,10.82,41.62
0.003,0.05175,8.734,5.537,81.0,10.82,41.58
-0.079,0.03625,8.732,5.535,81.0,10.82,41.58
0.267,0.08275,8.728,5.534,81.0,10.82,41.58
-0.095,0.0465,8.726,5.534,81.0,10.82,41.56
0.023,0.06225,8.726,5.531,81.0,10.82,41.52
0.149,0.0415,8.723,5.53,81.0,10.82,41.51
0.054,0.0415,8.721,5.529,81.0,10.82,41.49
-0.052,0.057,8.718,5.527,80.0,10.82,41.51
-0.034,0.057,8.716,5.525,80.0,10.82,41.51
-0.05,0.057,8.718,5.521,80.0,10.82,41.52
-0.071,0.057,8.717,5.517,80.0,10.82,41.38
-0.08,0.0465,8.714,5.512,80.0,10.82,41.33
0.011,0.05175,8.711,5.507,80.0,10.82,41.34
-0.085,0.0415,8.708,5.501,80.0,10.82,41.37
0.244,0.08275,8.706,5.497,80.0,10.82,41.39
-0.08,0.06725,8.704,5.494,80.0,10.82,41.4
0.026,0.0465,8.702,5.49,80.0,10.82,41.39
0.15,0.03625,8.699,5.486,80.0,10.82,41.38
0.04,0.05175,8.698,5.486,80.0,10.82,41.38
-0.057,0.0415,8.698,5.484,78.0,10.82,41.4
-0.04,0.06725,8.698,5.484,78.0,10.82,41.39
-0.058,0.0465,8.696,5.484,78.0,10.82,41.38
-0.081,0.0465,8.693,5.481,78.0,10.82,41.26
-0.08,0.057,8.689,5.48,78.0,10.82,41.23
0.006,0.06225,8.688,5.482,78.0,10.82,41.24
-0.1,0.057,8.687,5.484,78.0,10.82,41.28
0.223,0.0985,8.684,5.484,78.0,10.82,41.29
-0.056,0.0465,8.681,5.481,78.0,10.82,41.28
0.051,0.026,8.677,5.48,78.0,10.82,41.27
0.154,0.0465,8.673,5.475,78.0,10.82,41.24
0.009,0.03625,8.671,5.473,78.0,10.82,41.23
-0.057,0.0415,8.673,5.47,78.0,10.82,41.24
-0.043,0.06225,8.673,5.469,78.0,10.82,41.23
-0.066,0.05175,8.671,5.469,78.0,10.82,41.2
-0.085,0.0465,8.667,5.469,78.0,10.82,41.1
-0.091,0.031,8.664,5.468,78.0,10.82,41.08
-0.004,0.057,8.662,5.467,78.0,10.82,41.1
-0.086,0.0465,8.659,5.467,78.0,10.82,41.13
0.244,0.10875,8.657,5.467,78.0,10.82,41.13
-0.105,0.05175,8.656,5.467,78.0,10.82,41.13
0.009,0.0415,8.654,5.467,78.0,10.82,41.11
0.142,0.0465,8.651,5.467,78.0,10.82,41.1
0.046,0.0465,8.647,5.467,78.0,10.82,41.09
-0.065,0.0465,8.642,5.465,75.0,10.82,41.1
-0.049,0.05175,8.639,5.464,75.0,10.82,41.11
-0.065,0.06225,8.64,5.462,75.0,10.82,41.1
-0.089,0.0465,8.641,5.459,75.0,10.82,40.98
-0.096,0.0465,8.639,5.458,75.0,10.82,40.95
-0.059,0.0465,8.637,5.457,75.0,10.82,40.97
-0.04,0.057,8.632,5.454,75.0,10.82,41.01
0.159,0.0725,8.63,5.454,75.0,10.82,41.02
-0.063,0.06725,8.629,5.452,75.0,10.82,41.02
-0.043,0.0415,8.627,5.449,75.0,10.82,41.02
0.089,0.0465,8.626,5.447,75.0,10.82,41.01
0.099,0.0415,8.625,5.444,75.0,10.82,41.0
-0.062,0.0465,8.622,5.444,75.0,10.82,41.01
-0.073,0.0465,8.619,5.444,75.0,10.82,41.02
-0.072,0.0415,8.616,5.44,75.0,10.82,41.04
-0.098,0.03625,8.612,5.437,75.0,10.82,40.95
-0.11,0.03625,8.609,5.435,75.0,10.82,40.9
-0.096,0.0465,8.606,5.432,75.0,10.82,40.9
-0.029,0.05175,8.605,5.429,75.0,10.82,40.94
-0.073,0.05175,8.604,5.429,75.0,10.82,40.96
0.137,0.08275,8.604,5.432,75.0,10.82,40.96
-0.072,0.0465,8.6,5.432,75.0,10.82,40.96
0.048,0.0415,8.596,5.432,75.0,10.82,40.94
0.115,0.0415,8.592,5.429,76.0,10.82,40.94
-0.046,0.0415,8.587,5.429,76.0,10.82,40.94
-0.084,0.0465,8.586,5.429,76.0,10.82,40.97
-0.073,0.05175,8.589,5.428,76.0,10.82,40.96
-0.096,0.05175,8.587,5.425,76.0,10.82,40.92
-0.11,0.03625,8.584,5.423,76.0,10.82,40.83
-0.075,0.031,8.58,5.42,76.0,10.82,40.84
-0.05,0.05175,8.577,5.417,76.0,10.82,40.85
0.111,0.057,8.572,5.417,76.0,10.82,40.89
-0.034,0.0725,8.569,5.414,76.0,10.82,40.9
-0.054,0.05175,8.565,5.412,76.0,10.82,40.9
0.077,0.057,8.563,5.41,76.0,10.82,40.9
0.092,0.03625,8.562,5.408,76.0,10.82,40.9
-0.068,0.05175,8.559,5.405,76.0,10.82,40.91
-0.075,0.03625,8.555,5.404,78.0,10.82,40.93
-0.073,0.03625,8.553,5.403,78.0,10.82,40.93
-0.095,0.05175,8.55,5.402,78.0,10.82,40.86
-0.103,0.05175,8.548,5.399,78.0,10.82,40.77
-0.09,0.031,8.545,5.397,78.0,10.82,40.77
-0.009,0.0465,8.54,5.394,78.0,10.82,40.81
-0.084,0.0465,8.538,5.393,78.0,10.82,40.85
0.194,0.08275,8.534,5.392,78.0,10.82,40.85
-0.049,0.06225,8.533,5.391,78.0,10.82,40.85
0.067,0.0465,8.53,5.388,78.0,10.82,40.84
0.154,0.0415,8.527,5.387,78.0,10.82,40.84
-0.001,0.057,8.523,5.385,78.0,10.82,40.84
-0.048,0.05175,8.52,5.385,75.0,10.82,40.87
-0.033,0.03625,8.518,5.381,75.0,10.82,40.9
-0.055,0.057,8.517,5.38,75.0,10.82,40.87
-0.071,0.06225,8.514,5.377,75.0,10.82,40.77
-0.061,0.0465,8.513,5.376,75.0,10.82,40.77
0.006,0.0725,8.508,5.372,75.0,10.82,40.79
-0.061,0.0465,8.504,5.37,75.0,10.82,40.84
0.193,0.08275,8.504,5.367,75.0,10.83,40.85
-0.045,0.05175,8.504,5.365,75.0,10.82,40.86
0.066,0.0465,8.502,5.362,75.0,10.82,40.86
0.143,0.0415,8.499,5.358,75.0,10.83,40.85
-0.015,0.031,8.495,5.355,75.0,10.83,40.85
-0.059,0.0465,8.493,5.352,77.0,10.82,40.88
-0.046,0.0415,8.492,5.35,77.0,10.82,40.88
-0.07,0.05175,8.488,5.348,77.0,10.82,40.84
-0.083,0.0465,8.489,5.345,77.0,10.82,40.75
-0.054,0.057,8.489,5.343,77.0,10.82,40.74
-0.018,0.05175,8.485,5.342,77.0,10.82,40.77
0.085,0.06225,8.481,5.345,77.0,10.82,40.8
0.046,0.05175,8.478,5.345,77.0,10.82,40.81
-0.034,0.0415,8.477,5.343,77.0,10.82,40.81
0.1,0.0415,8.473,5.341,77.0,10.82,40.8
0.133,0.0465,8.472,5.338,77.0,10.82,40.79
-0.026,0.06225,8.468,5.337,77.0,10.82,40.78
-0.044,0.06225,8.463,5.335,79.0,10.82,40.8
-0.039,0.0415,8.463,5.332,79.0,10.82,40.8
-0.063,0.03625,8.463,5.331,79.0,10.82,40.75
-0.074,0.0415,8.462,5.326,79.0,10.82,40.66
-0.014,0.0465,8.46,5.322,79.0,10.82,40.66
-0.042,0.0465,8.456,5.327,79.0,10.82,40.69
0.302,0.088,8.452,5.333,79.0,10.82,40.73
-0.136,0.06725,8.448,5.336,79.0,10.82,40.74
-0.001,0.06725,8.447,5.335,79.0,10.82,40.74
0.138,0.0415,8.445,5.332,79.0,10.83,40.72
0.114,0.0465,8.441,5.33,79.0,10.83,40.7
-0.033,0.03625,8.438,5.33,79.0,10.82,40.72
-0.029,0.057,8.435,5.328,78.0,10.82,40.74
-0.035,0.05175,8.432,5.326,78.0,10.82,40.74
-0.058,0.0465,8.43,5.323,78.0,10.82,40.65
-0.066,0.06225,8.427,5.322,78.0,10.82,40.59
0.028,0.057,8.426,5.32,78.0,10.83,40.61
-0.076,0.0415,8.425,5.32,78.0,10.83,40.62
0.26,0.06725,8.422,5.317,78.0,10.82,40.65
-0.058,0.0415,8.42,5.313,78.0,10.83,40.66
0.043,0.0465,8.416,5.312,78.0,10.82,40.65
0.168,0.05175,8.413,5.308,78.0,10.82,40.63
0.052,0.05175,8.411,5.306,78.0,10.82,40.63
-0.042,0.05175,8.41,5.304,80.0,10.82,40.64
-0.028,0.0415,8.408,5.301,80.0,10.82,40.65
-0.048,0.03625,8.406,5.298,80.0,10.82,40.64
-0.07,0.0465,8.403,5.296,80.0,10.82,40.55
-0.068,0.0415,8.401,5.298,80.0,10.82,40.52
0.013,0.03625,8.398,5.298,80.0,10.82,40.53
-0.087,0.03625,8.395,5.294,80.0,10.82,40.57
0.231,0.0725,8.391,5.29,80.0,10.82,40.59
-0.051,0.0415,8.39,5.288,80.0,10.82,40.61
0.054,0.06225,8.386,5.285,80.0,10.82,40.59
0.153,0.05175,8.385,5.285,80.0,10.82,40.58
0.006,0.05175,8.383,5.285,80.0,10.83,40.57
-0.054,0.05175,8.381,5.281,78.0,10.82,40.6
-0.04,0.057,8.38,5.279,78.0,10.82,40.6
-0.065,0.057,8.378,5.279,78.0,10.83,40.57
-0.084,0.05175,8.376,5.276,78.0,10.82,40.48
-0.056,0.057,8.374,5.271,78.0,10.82,40.47
-0.024,0.0465,8.37,5.27,78.0,10.82,40.48
0.081,0.06225,8.368,5.27,78.0,10.83,40.51
0.045,0.07775,8.364,5.27,78.0,10.82,40.52
-0.041,0.0415,8.363,5.269,78.0,10.82,40.53
0.089,0.03625,8.363,5.269,78.0,10.82,40.51
0.124,0.057,8.361,5.268,78.0,10.82,40.51
-0.038,0.03625,8.359,5.265,78.0,10.82,40.5
-0.054,0.05175,8.356,5.266,80.0,10.83,40.52
-0.048,0.06225,8.354,5.257,80.0,10.83,40.54
-0.074,0.057,8.351,5.255,80.0,10.82,40.48
-0.086,0.05175,8.348,5.256,80.0,10.83,40.4
-0.001,0.0415,8.346,5.258,80.0,10.83,40.4
-0.085,0.0415,8.344,5.258,80.0,10.82,40.43
0.268,0.088,8.34,5.258,80.0,10.82,40.47
-0.112,0.057,8.338,5.258,80.0,10.83,40.5
0.006,0.05175,8.335,5.258,80.0,10.82,40.5
0.141,0.0415,8.333,5.253,80.0,10.82,40.49
0.054,0.03625,8.33,5.255,80.0,10.82,40.47
-0.063,0.06225,8.328,5.258,80.0,10.82,40.49
-0.05,0.05175,8.325,5.256,80.0,10.82,40.52
-0.065,0.0415,8.323,5.255,80.0,10.82,40.54
-0.09,0.0465,8.32,5.255,80.0,10.82,40.45
-0.088,0.05175,8.318,5.255,80.0,10.82,40.46
-0.018,0.0415,8.314,5.255,80.0,10.82,40.58
-0.095,0.05175,8.313,5.256,80.0,10.82,40.78
0.186,0.09325,8.31,5.25,80.0,10.82,40.96
-0.073,0.05175,8.309,5.25,80.0,10.82,41.14
0.034,0.08275,8.308,5.249,80.0,10.82,41.36
0.112,0.29525,8.305,5.248,80.0,10.82,41.56
-0.031,0.09325,8.305,5.244,80.0,10.82,41.75
-0.086,0.05175,8.303,5.243,80.0,10.82,41.98
-0.075,0.06225,8.302,5.243,80.0,10.82,42.16
-0.099,0.0465,8.299,5.243,80.0,10.82,42.27
-0.077,0.031,8.297,5.241,80.0,10.82,42.31
-0.074,0.0465,8.293,5.24,80.0,10.83,42.42
0.137,0.06225,8.289,5.24,80.0,10.82,42.54
-0.073,0.06725,8.288,5.238,80.0,10.82,42.66
-0.055,0.0465,8.286,5.235,80.0,10.83,42.76
0.077,0.0415,8.284,5.233,80.0,10.83,42.86
0.078,0.0465,8.282,5.229,80.0,10.82,42.94
-0.071,0.0415,8.281,5.226,86.0,10.83,43.02
-0.075,0.026,8.279,5.225,86.0,10.83,43.07
-0.069,0.05175,8.277,5.219,86.0,10.83,43.02
-0.094,0.057,8.272,5.219,86.0,10.82,42.83
-0.042,0.0725,8.268,5.219,86.0,10.83,42.64
-0.073,0.05175,8.268,5.215,86.0,10.83,42.53
0.277,0.088,8.266,5.212,86.0,10.82,42.42
-0.155,0.0725,8.266,5.209,86.0,10.82,42.3
-0.032,0.057,8.264,5.202,86.0,10.83,42.19
0.118,0.0465,8.264,5.198,86.0,10.83,42.15
0.097,0.06225,8.263,5.199,86.0,10.82,42.05
-0.061,0.06225,8.263,5.206,85.0,10.83,41.93
-0.056,0.06725,8.259,5.207,85.0,10.82,41.81
-0.051,0.0725,8.257,5.207,85.0,10.82,41.68
-0.077,0.05175,8.254,5.209,85.0,10.82,41.44
-0.018,0.05175,8.252,5.211,85.0,10.83,41.25
-0.063,0.057,8.249,5.211,85.0,10.82,41.15
0.321,0.1035,8.246,5.205,85.0,10.82,41.06
-0.158,0.05175,8.242,5.21,85.0,10.82,41.01
-0.013,0.0415,8.241,5.215,85.0,10.82,40.96
0.141,0.06225,8.239,5.216,85.0,10.82,40.9
0.101,0.05175,8.237,5.221,85.0,10.82,40.84
-0.058,0.06225,8.236,5.224,85.0,10.82,40.8
-0.054,0.0465,8.234,5.226,85.0,10.82,40.77
-0.053,0.0415,8.233,5.231,85.0,10.82,40.74
-0.079,0.0415,8.233,5.233,85.0,10.82,40.63
-0.087,0.05175,8.232,5.236,85.0,10.82,40.55
-0.063,0.0465,8.231,5.24,85.0,10.82,40.56
-0.018,0.06225,8.228,5.243,85.0,10.83,40.56
0.011,0.057,8.226,5.243,85.0,10.82,40.58
0.122,0.07775,8.223,5.244,85.0,10.82,40.57
-0.044,0.0465,8.223,5.248,85.0,10.82,40.58
0.084,0.057,8.223,5.25,85.0,10.82,40.57
0.142,0.05175,8.223,5.254,85.0,10.82,40.57
-0.037,0.057,8.226,5.256,85.0,10.82,40.58
-0.079,0.03625,8.229,5.26,75.0,10.82,40.61
-0.073,0.0415,8.237,5.263,75.0,10.82,40.63
-0.103,0.0725,8.247,5.27,75.0,10.82,40.71
-0.124,0.057,8.262,5.276,75.0,10.83,41.05
-0.107,0.0465,8.277,5.278,75.0,10.82,41.55
-0.075,0.06225,8.296,5.281,75.0,10.82,42.0
0.026,0.03625,8.315,5.286,75.0,10.83,42.37
0.01,0.1035,8.339,5.291,75.0,10.83,42.7
-0.076,0.06725,8.364,5.29,75.0,10.82,43.09
0.044,0.06725,8.386,5.29,78.0,10.82,43.51
0.073,0.0465,8.407,5.301,78.0,10.83,43.86
-0.08,0.0415,8.43,5.307,78.0,10.83,44.11
-0.097,0.05175,8.447,5.311,78.0,10.82,44.33
-0.092,0.0415,8.467,5.305,78.0,10.83,44.5
-0.12,0.06225,8.483,5.308,78.0,10.83,44.64
-0.059,0.057,8.498,5.308,78.0,10.83,44.76
-0.118,0.0415,8.511,5.308,78.0,10.82,44.87
0.26,0.06725,8.521,5.312,78.0,10.83,44.98
-0.176,0.07775,8.531,5.312,78.0,10.82,45.07
-0.034,0.0465,8.54,5.311,78.0,10.83,45.15
0.108,0.031,8.546,5.31,78.0,10.83,45.17
0.037,0.057,8.553,5.31,78.0,10.82,45.08
-0.09,0.05175,8.555,5.307,86.0,10.83,44.97
-0.077,0.03625,8.557,5.307,86.0,10.82,44.83
-0.075,0.05175,8.559,5.308,86.0,10.83,44.66
-0.095,0.05175,8.559,5.31,86.0,10.83,44.35
-0.016,0.05175,8.555,5.308,86.0,10.83,44.13
-0.1,0.0465,8.549,5.307,86.0,10.82,43.95
0.293,0.11925,8.544,5.308,86.0,10.83,43.8
-0.133,0.07775,8.542,5.308,86.0,10.83,43.64
0.002,0.0415,8.539,5.308,86.0,10.83,43.45
0.167,0.0465,8.539,5.307,86.0,10.83,43.24
0.061,0.057,8.535,5.307,86.0,10.82,43.02
-0.077,0.057,8.53,5.305,85.0,10.83,42.84
-0.064,0.05175,8.525,5.305,85.0,10.83,42.64
-0.065,0.0415,8.52,5.303,85.0,10.83,42.44
-0.088,0.05175,8.515,5.301,85.0,10.83,42.11
-0.024,0.0465,8.51,5.3,85.0,10.83,41.87
-0.078,0.0465,8.505,5.298,85.0,10.83,41.71
0.323,0.06225,8.5,5.296,85.0,10.82,41.55
-0.169,0.06225,8.495,5.295,85.0,10.83,41.38
-0.016,0.03625,8.494,5.295,85.0,10.83,41.25
0.146,0.0415,8.493,5.294,85.0,10.83,41.14
0.111,0.0465,8.486,5.291,85.0,10.83,41.05
-0.061,0.05175,8.481,5.289,83.0,10.83,41.09
-0.061,0.057,8.473,5.29,83.0,10.82,41.16
-0.059,0.0415,8.466,5.29,83.0,10.82,41.16
-0.082,0.03625,8.459,5.29,83.0,10.83,40.95
-0.092,0.05175,8.453,5.289,83.0,10.83,40.79
-0.092,0.05175,8.448,5.289,83.0,10.82,40.73
-0.091,0.03625,8.443,5.29,83.0,10.83,40.73
-0.021,0.06225,8.441,5.29,83.0,10.83,40.72
-0.095,0.0465,8.436,5.289,83.0,10.82,40.68
0.28,0.06725,8.433,5.288,83.0,10.83,40.66
-0.098,0.057,8.428,5.286,83.0,10.83,40.64
0.009,0.05175,8.425,5.284,83.0,10.82,40.63
0.158,0.05175,8.421,5.284,83.0,10.82,40.63
0.073,0.05175,8.417,5.283,83.0,10.83,40.68
-0.066,0.057,8.413,5.28,67.0,10.83,40.78
-0.06,0.057,8.411,5.279,67.0,10.83,40.93
-0.072,0.0415,8.407,5.276,67.0,10.83,41.1
-0.098,0.0465,8.405,5.275,67.0,10.83,41.19
-0.109,0.0415,8.401,5.271,67.0,10.83,41.38
-0.068,0.0415,8.398,5.27,67.0,10.83,41.6
-0.094,0.026,8.396,5.268,67.0,10.83,41.81
0.232,0.06225,8.392,5.265,67.0,10.83,42.0
-0.129,0.06725,8.392,5.26,67.0,10.83,42.2
-0.042,0.03625,8.391,5.26,67.0,10.83,42.4
0.087,0.0465,8.39,5.258,67.0,10.83,42.59
0.075,0.031,8.389,5.256,67.0,10.83,42.78
-0.089,0.05175,8.388,5.254,75.0,10.83,42.99
-0.099,0.05175,8.386,5.25,75.0,10.83,43.19
-0.096,0.05175,8.385,5.249,75.0,10.83,43.36
-0.117,0.0465,8.385,5.248,75.0,10.82,43.44
-0.06,0.0415,8.384,5.244,75.0,10.83,43.53
-0.1,0.0465,8.383,5.24,75.0,10.83,43.66
0.262,0.088,8.379,5.236,75.0,10.83,43.8
-0.171,0.0985,8.376,5.235,75.0,10.82,43.92
-0.035,0.06225,8.374,5.233,75.0,10.83,43.93
0.109,0.05175,8.371,5.231,75.0,10.83,43.87
0.068,0.05175,8.369,5.23,75.0,10.83,43.75
-0.081,0.06225,8.366,5.23,85.0,10.83,43.62
-0.072,0.06225,8.363,5.224,85.0,10.83,43.48
-0.07,0.0465,8.36,5.223,85.0,10.83,43.33
-0.093,0.0465,8.356,5.22,85.0,10.83,43.06
-0.028,0.03625,8.354,5.219,85.0,10.83,42.85
-0.075,0.05175,8.35,5.216,85.0,10.83,42.67
0.315,0.05175,8.346,5.215,85.0,10.83,42.51
-0.165,0.057,8.344,5.213,85.0,10.83,42.37
-0.015,0.0465,8.339,5.21,85.0,10.83,42.21
0.147,0.0415,8.336,5.208,85.0,10.83,42.06
0.108,0.03625,8.334,5.209,85.0,10.83,41.88
-0.059,0.06225,8.33,5.211,85.0,10.83,41.72
-0.059,0.05175,8.326,5.211,84.0,10.83,41.59
-0.054,0.031,8.323,5.208,84.0,10.83,41.46
-0.076,0.0465,8.319,5.208,84.0,10.83,41.22
-0.068,0.03625,8.316,5.203,84.0,10.83,41.03
-0.003,0.057,8.314,5.201,84.0,10.83,40.92
-0.072,0.05175,8.309,5.201,84.0,10.83,40.84
0.21,0.09325,8.305,5.198,84.0,10.83,40.79
-0.049,0.06225,8.302,5.199,84.0,10.83,40.73
0.07,0.0465,8.299,5.199,84.0,10.83,40.67
0.179,0.057,8.297,5.198,84.0,10.83,40.62
-0.007,0.0465,8.293,5.196,84.0,10.83,40.58
-0.065,0.0465,8.291,5.194,80.0,10.83,40.58
-0.047,0.05175,8.287,5.192,80.0,10.83,40.58
-0.066,0.03625,8.284,5.192,80.0,10.83,40.52
-0.085,0.06225,8.282,5.183,80.0,10.83,40.42
-0.077,0.05175,8.279,5.181,80.0,10.83,40.41
0.0,0.07775,8.276,5.183,80.0,10.83,40.44
-0.095,0.06225,8.272,5.183,80.0,10.83,40.46
0.216,0.088,8.269,5.182,80.0,10.83,40.48
-0.057,0.08275,8.267,5.178,80.0,10.83,40.5
0.054,0.03625,8.263,5.179,80.0,10.83,40.5
0.174,0.03625,8.262,5.176,80.0,10.83,40.51
0.009,0.057,8.258,5.176,80.0,10.83,40.51
-0.062,0.05175,8.256,5.173,77.0,10.83,40.53
-0.043,0.03625,8.252,5.172,77.0,10.83,40.53
-0.066,0.05175,8.249,5.169,77.0,10.83,40.49
-0.086,0.0415,8.247,5.166,77.0,10.83,40.4
-0.09,0.0465,8.243,5.166,77.0,10.82,40.4
-0.046,0.06225,8.239,5.166,77.0,10.82,40.45
-0.044,0.05175,8.237,5.163,77.0,10.83,40.54
0.201,0.05175,8.234,5.162,77.0,10.83,40.63
-0.074,0.06225,8.232,5.157,77.0,10.82,40.75
-0.037,0.0465,8.229,5.152,77.0,10.83,40.88
0.099,0.057,8.227,5.151,77.0,10.83,41.05
0.114,0.03625,8.223,5.149,77.0,10.83,41.23
-0.058,0.05175,8.221,5.147,77.0,10.83,41.45
-0.073,0.0725,8.218,5.148,73.0,10.83,41.65
-0.067,0.03625,8.216,5.148,73.0,10.83,41.85
-0.094,0.03625,8.214,5.147,73.0,10.83,41.94
-0.102,0.05175,8.211,5.144,73.0,10.83,42.05
-0.018,0.057,8.207,5.142,73.0,10.83,42.23
-0.119,0.05175,8.205,5.141,73.0,10.83,42.42
0.237,0.1035,8.202,5.141,73.0,10.83,42.61
-0.104,0.03625,8.2,5.139,73.0,10.83,42.78
0.007,0.031,8.196,5.138,73.0,10.83,42.93
0.129,0.031,8.194,5.136,73.0,10.83,43.07
0.014,0.03625,8.192,5.134,73.0,10.83,43.2
-0.083,0.0415,8.189,5.131,80.0,10.83,43.37
-0.061,0.0465,8.186,5.126,80.0,10.83,43.51
-0.072,0.05175,8.184,5.128,80.0,10.83,43.61
-0.09,0.0725,8.184,5.128,80.0,10.83,43.62
-0.016,0.0415,8.18,5.126,80.0,10.83,43.66
-0.085,0.0465,8.177,5.124,80.0,10.83,43.63
0.294,0.06725,8.175,5.127,80.0,10.83,43.56
-0.13,0.05175,8.171,5.126,80.0,10.83,43.46
0.01,0.0465,8.169,5.127,80.0,10.83,43.3
0.162,0.057,8.167,5.128,80.0,10.83,43.15
0.08,0.0415,8.165,5.128,80.0,10.83,42.97
-0.053,0.0465,8.162,5.129,83.0,10.83,42.82
-0.038,0.0465,8.16,5.131,83.0,10.83,42.67
-0.035,0.0465,8.157,5.131,83.0,10.83,42.5
-0.06,0.0465,8.156,5.132,83.0,10.83,42.2
-0.027,0.0465,8.154,5.133,83.0,10.83,41.98
-0.014,0.057,8.151,5.133,83.0,10.83,41.82
0.139,0.0465,8.149,5.134,83.0,10.83,41.7
0.051,0.06225,8.146,5.133,83.0,10.83,41.59
-0.013,0.057,8.144,5.134,83.0,10.83,41.45
0.13,0.0465,8.142,5.134,83.0,10.83,41.33
0.173,0.0415,8.141,5.133,83.0,10.83,41.22
-0.02,0.03625,8.139,5.133,83.0,10.83,41.14
-0.044,0.057,8.137,5.133,81.0,10.83,41.08
-0.031,0.0415,8.136,5.131,81.0,10.83,41.01
-0.053,0.031,8.134,5.129,81.0,10.83,40.86
-0.067,0.03625,8.132,5.128,81.0,10.83,40.73
0.011,0.0465,8.13,5.125,81.0,10.83,40.69
-0.065,0.06225,8.128,5.124,81.0,10.83,40.67
0.309,0.0985,8.124,5.122,81.0,10.83,40.68
-0.118,0.06225,8.122,5.121,81.0,10.83,40.67
0.019,0.0465,8.12,5.117,81.0,10.83,40.66
0.178,0.057,8.119,5.116,81.0,10.83,40.63
0.103,0.06725,8.117,5.115,81.0,10.83,40.62
-0.045,0.05175,8.114,5.114,80.0,10.83,40.62
-0.036,0.0415,8.113,5.11,80.0,10.83,40.62
-0.041,0.0465,8.11,5.106,80.0,10.83,40.6
-0.068,0.057,8.108,5.106,80.0,10.83,40.49
-0.078,0.0415,8.105,5.104,80.0,10.83,40.44
-0.074,0.03625,8.103,5.1,80.0,10.83,40.45
0.002,0.06225,8.099,5.099,80.0,10.83,40.46
-0.098,0.05175,8.097,5.096,80.0,10.83,40.5
0.23,0.0725,8.095,5.095,80.0,10.83,40.51
-0.059,0.031,8.093,5.092,80.0,10.83,40.57
0.04,0.0415,8.09,5.091,80.0,10.83,40.66
0.164,0.0415,8.088,5.091,80.0,10.83,40.77
0.011,0.0465,8.085,5.087,80.0,10.83,40.93
-0.076,0.0465,8.084,5.084,72.0,10.84,41.1
-0.059,0.0415,8.082,5.084,72.0,10.84,41.27
-0.081,0.0415,8.079,5.082,72.0,10.84,41.4
-0.105,0.057,8.078,5.081,72.0,10.84,41.45
-0.114,0.0465,8.074,5.077,72.0,10.84,41.59
-0.079,0.06225,8.073,5.077,72.0,10.84,41.76
-0.063,0.057,8.069,5.077,72.0,10.84,41.96
0.144,0.0725,8.067,5.075,72.0,10.84,42.12
-0.048,0.06225,8.064,5.076,72.0,10.84,42.28
-0.048,0.0415,8.062,5.074,72.0,10.84,42.43
0.084,0.0465,8.06,5.074,72.0,10.84,42.57
0.107,0.05175,8.058,5.072,72.0,10.83,42.71
-0.061,0.0415,8.055,5.07,72.0,10.84,42.89
-0.08,0.05175,8.053,5.069,73.0,10.84,43.05
-0.069,0.06725,8.05,5.069,73.0,10.84,43.19
-0.091,0.057,8.048,5.067,73.0,10.84,43.23
-0.091,0.031,8.045,5.066,73.0,10.83,43.28
-0.018,0.03625,8.043,5.066,73.0,10.83,43.37
-0.101,0.05175,8.04,5.064,73.0,10.84,43.45
0.22,0.088,8.038,5.062,73.0,10.83,43.43
-0.057,0.06225,8.037,5.06,73.0,10.83,43.35
0.058,0.0415,8.035,5.059,73.0,10.83,43.2
0.167,0.05175,8.031,5.059,73.0,10.83,43.04
0.0,0.057,8.028,5.056,73.0,10.83,42.89
-0.065,0.03625,8.026,5.052,82.0,10.83,42.75
-0.043,0.05175,8.023,5.05,82.0,10.83,42.58
-0.059,0.0465,8.022,5.047,82.0,10.83,42.37
-0.072,0.05175,8.02,5.046,82.0,10.83,42.11
-0.074,0.0465,8.018,5.042,82.0,10.83,41.94
0.004,0.06725,8.016,5.041,82.0,10.83,41.81
-0.062,0.05175,8.013,5.041,82.0,10.83,41.69
0.334,0.0985,8.012,5.037,82.0,10.83,41.57
-0.115,0.06225,8.01,5.038,82.0,10.83,41.47
0.023,0.0465,8.007,5.035,82.0,10.83,41.38
0.193,0.05175,8.006,5.032,82.0,10.83,41.27
0.123,0.0415,8.002,5.033,82.0,10.83,41.18
-0.034,0.0465,8.0,5.033,82.0,10.83,41.1
-0.029,0.0415,8.0,5.032,75.0,10.83,41.02
-0.026,0.0465,7.996,5.029,75.0,10.83,40.96
-0.05,0.057,7.993,5.027,75.0,10.83,40.78
-0.062,0.05175,7.992,5.028,75.0,10.83,40.67
-0.037,0.0465,7.99,5.025,75.0,10.83,40.64
0.002,0.0465,7.986,5.022,75.0,10.83,40.63
0.03,0.0465,7.983,5.024,75.0,10.83,40.62
0.153,0.08275,7.982,5.022,75.0,10.83,40.61
-0.022,0.0465,7.98,5.019,75.0,10.82,40.57
0.111,0.05175,7.977,5.017,75.0,10.83,40.56
0.195,0.06725,7.976,5.017,75.0,10.83,40.54
0.001,0.0465,7.973,5.015,75.0,10.83,40.56
-0.041,0.031,7.972,5.012,74.0,10.83,40.57
-0.027,0.0415,7.97,5.012,74.0,10.83,40.58
-0.049,0.06225,7.968,5.012,74.0,10.83,40.53
-0.066,0.03625,7.967,5.01,74.0,10.83,40.43
-0.07,0.0415,7.965,5.008,74.0,10.83,40.42
-0.069,0.0465,7.962,5.004,74.0,10.83,40.44
0.01,0.06225,7.958,5.004,74.0,10.83,40.46
-0.069,0.0465,7.957,5.004,74.0,10.83,40.46
0.281,0.09325,7.955,5.003,74.0,10.83,40.48
-0.085,0.06725,7.952,5.002,74.0,10.83,40.47
0.024,0.031,7.95,4.999,74.0,10.83,40.5
0.177,0.06725,7.948,4.999,74.0,10.83,40.55
0.085,0.06225,7.945,4.999,74.0,10.83,40.66
-0.056,0.0465,7.944,4.999,68.0,10.83,40.81
-0.048,0.05175,7.943,4.998,68.0,10.83,40.93
-0.06,0.06725,7.941,4.993,68.0,10.83,41.05
-0.085,0.0465,7.939,4.993,68.0,10.83,41.06
-0.096,0.05175,7.936,4.993,68.0,10.83,41.17
-0.073,0.06225,7.934,4.988,68.0,10.82,41.33
-0.037,0.0465,7.931,4.989,68.0,10.83,41.51
0.032,0.0725,7.929,4.989,68.0,10.83,41.66
0.069,0.08275,7.926,4.988,68.0,10.82,41.81
-0.055,0.0465,7.924,4.984,68.0,10.82,41.95
0.073,0.03625,7.921,4.984,75.0,10.83,42.08
0.128,0.0725,7.92,4.984,75.0,10.82,42.22
-0.049,0.06725,7.918,4.984,75.0,10.82,42.4
-0.085,0.057,7.915,4.98,75.0,10.82,42.58
-0.077,0.0465,7.913,4.979,75.0,10.82,42.72
-0.104,0.05175,7.91,4.977,75.0,10.82,42.8
-0.088,0.0415,7.909,4.975,75.0,10.82,42.87
-0.056,0.0415,7.906,4.973,75.0,10.82,42.98
0.014,0.06225,7.904,4.973,75.0,10.82,43.12
0.07,0.07775,7.901,4.972,75.0,10.82,43.25
-0.06,0.06225,7.899,4.969,75.0,10.83,43.34
0.074,0.06225,7.896,4.969,84.0,10.83,43.37
0.121,0.06225,7.894,4.967,84.0,10.83,43.3
-0.05,0.03625,7.893,4.968,84.0,10.83,43.19
-0.075,0.03625,7.89,4.964,84.0,10.83,43.08
-0.065,0.06225,7.888,4.963,84.0,10.83,42.95
-0.087,0.06725,7.885,4.963,84.0,10.83,42.71
-0.074,0.057,7.884,4.96,84.0,10.83,42.46
-0.031,0.0465,7.881,4.959,84.0,10.83,42.27
-0.019,0.05175,7.879,4.958,84.0,10.83,42.1
0.138,0.06225,7.876,4.958,84.0,10.83,41.98
-0.056,0.05175,7.875,4.953,84.0,10.82,41.84
0.079,0.06225,7.874,4.951,84.0,10.83,41.67
0.164,0.0465,7.871,4.953,84.0,10.82,41.51
-0.032,0.0415,7.87,4.952,84.0,10.82,41.37
-0.074,0.0725,7.868,4.95,83.0,10.82,41.3
-0.057,0.0465,7.865,4.95,83.0,10.82,41.18
-0.078,0.0415,7.864,4.947,83.0,10.82,41.01
-0.07,0.05175,7.862,4.951,83.0,10.82,40.8
-0.017,0.05175,7.859,4.948,83.0,10.82,40.74
-0.048,0.06225,7.857,4.947,83.0,10.82,40.69
0.175,0.09325,7.854,4.946,83.0,10.82,40.66
-0.054,0.0465,7.853,4.945,83.0,10.82,40.62
0.074,0.0415,7.851,4.943,83.0,10.82,40.58
0.169,0.03625,7.848,4.945,83.0,10.82,40.54
-0.025,0.03625,7.847,4.945,83.0,10.82,40.52
-0.072,0.03625,7.846,4.941,84.0,10.82,40.52
-0.059,0.0415,7.843,4.94,84.0,10.82,40.51
-0.081,0.0415,7.841,4.941,84.0,10.82,40.44
-0.096,0.0415,7.839,4.942,84.0,10.82,40.32
-0.101,0.0415,7.837,4.937,84.0,10.82,40.32
-0.028,0.0415,7.834,4.936,84.0,10.82,40.34
-0.087,0.05175,7.832,4.936,84.0,10.82,40.41
0.286,0.07775,7.831,4.933,84.0,10.83,40.46
-0.156,0.0725,7.829,4.932,84.0,10.83,40.55
-0.019,0.06225,7.827,4.932,84.0,10.82,40.65
0.13,0.06725,7.826,4.932,84.0,10.83,40.77
0.084,0.06225,7.824,4.931,84.0,10.83,40.91
-0.072,0.0415,7.822,4.928,73.0,10.83,41.06
-0.067,0.06225,7.821,4.925,73.0,10.82,41.23
-0.072,0.0415,7.818,4.925,73.0,10.82,41.36
-0.099,0.0465,7.816,4.923,73.0,10.82,41.39
-0.11,0.0415,7.814,4.922,73.0,10.82,41.5
-0.029,0.05175,7.812,4.92,73.0,10.83,41.66
-0.122,0.057,7.808,4.921,73.0,10.83,41.83
0.232,0.09325,7.806,4.917,73.0,10.82,41.98
-0.125,0.06225,7.804,4.917,73.0,10.82,42.13
-0.006,0.06725,7.802,4.917,73.0,10.83,42.25
0.128,0.0725,7.801,4.917,73.0,10.82,42.38
0.021,0.0415,7.798,4.913,73.0,10.82,42.53
-0.092,0.0465,7.796,4.912,79.0,10.83,42.71
-0.077,0.05175,7.794,4.911,79.0,10.83,42.86
-0.087,0.0465,7.792,4.908,79.0,10.82,42.95
-0.108,0.05175,7.791,4.905,79.0,10.82,42.96
-0.081,0.05175,7.788,4.905,79.0,10.83,43.03
-0.049,0.03625,7.786,4.905,79.0,10.82,43.1
0.036,0.07775,7.783,4.903,79.0,10.82,43.12
0.072,0.088,7.782,4.901,79.0,10.83,43.04
-0.049,0.0415,7.778,4.901,79.0,10.82,42.94
0.093,0.05175,7.776,4.902,79.0,10.82,42.81
0.004,0.0415,7.775,4.899,79.0,10.82,42.65
-0.056,0.0415,7.772,4.897,80.0,10.82,42.53
-0.057,0.06725,7.771,4.895,80.0,10.82,42.41
-0.039,0.06225,7.769,4.896,80.0,10.82,42.26
-0.063,0.03625,7.767,4.892,80.0,10.82,42.03
-0.078,0.03625,7.764,4.892,80.0,10.82,41.64
-0.081,0.0415,7.764,4.892,80.0,10.82,41.62
-0.023,0.05175,7.761,4.891,80.0,10.82,41.48
-0.049,0.03625,7.759,4.887,80.0,10.83,41.36
0.328,0.057,7.757,4.885,80.0,10.82,41.26
-0.135,0.07775,7.756,4.882,80.0,10.82,41.15
-0.007,0.0415,7.754,4.885,80.0,10.83,41.05
0.156,0.031,7.751,4.882,80.0,10.82,40.94
0.156,0.057,7.751,4.882,80.0,10.82,40.87
-0.038,0.06725,7.749,4.882,80.0,10.83,40.83
-0.048,0.0415,7.746,4.88,72.0,10.83,40.78
-0.037,0.0465,7.744,4.878,72.0,10.83,40.73
-0.063,0.0415,7.741,4.878,72.0,10.83,40.57
-0.074,0.06725,7.74,4.878,72.0,10.83,40.47
-0.077,0.0465,7.737,4.876,72.0,10.82,40.45
-0.066,0.06725,7.736,4.875,72.0,10.82,40.44
0.005,0.07775,7.734,4.875,72.0,10.83,40.44
-0.073,0.057,7.731,4.872,72.0,10.82,40.42
0.248,0.09325,7.73,4.873,72.0,10.82,40.41
-0.04,0.03625,7.729,4.873,72.0,10.82,40.41
0.07,0.0415,7.725,4.869,72.0,10.82,40.4
0.207,0.057,7.724,4.87,72.0,10.82,40.4
0.033,0.057,7.721,4.87,72.0,10.82,40.41
-0.056,0.057,7.72,4.87,69.0,10.83,40.44
-0.038,0.0465,7.719,4.867,69.0,10.82,40.45
-0.053,0.03625,7.716,4.867,69.0,10.82,40.4
-0.075,0.0415,7.715,4.867,69.0,10.82,40.29
-0.083,0.057,7.712,4.867,69.0,10.82,40.28
-0.084,0.0415,7.711,4.867,69.0,10.82,40.3
-0.078,0.06725,7.709,4.865,69.0,10.82,40.35
-0.03,0.057,7.706,4.865,69.0,10.82,40.41
-0.085,0.05175,7.706,4.863,69.0,10.82,40.48
0.245,0.088,7.704,4.86,69.0,10.82,40.6
-0.048,0.0465,7.702,4.86,69.0,10.82,40.72
0.051,0.057,7.701,4.86,69.0,10.82,40.88
0.181,0.05175,7.699,4.86,69.0,10.82,41.05
0.022,0.06725,7.697,4.856,69.0,10.82,41.23
-0.071,0.15025,7.696,4.854,65.0,10.82,41.43
-0.057,0.05175,7.694,4.855,65.0,10.82,41.6
-0.074,0.03625,7.694,4.854,65.0,10.82,41.69
-0.097,0.06725,7.691,4.853,65.0,10.82,41.74
-0.104,0.05175,7.69,4.851,65.0,10.82,41.87
-0.034,0.0415,7.687,4.849,65.0,10.82,42.03
-0.1,0.057,7.685,4.849,65.0,10.82,42.18
0.276,0.10875,7.683,4.85,65.0,10.82,42.34
-0.141,0.0415,7.682,4.848,65.0,10.82,42.48
-0.007,0.05175,7.679,4.848,65.0,10.82,42.59
0.144,0.05175,7.679,4.848,65.0,10.82,42.71
0.07,0.06725,7.677,4.845,65.0,10.82,42.84
-0.074,0.031,7.674,4.845,75.0,10.82,43.0
-0.063,0.0465,7.672,4.844,75.0,10.82,43.12
-0.064,0.03625,7.669,4.84,75.0,10.82,43.15
-0.083,0.057,7.668,4.84,75.0,10.82,43.02
-0.031,0.05175,7.665,4.84,75.0,10.82,42.88
-0.06,0.057,7.663,4.839,75.0,10.82,42.75
0.286,0.05175,7.66,4.838,75.0,10.82,42.62
-0.131,0.057,7.658,4.838,75.0,10.82,42.47
-0.014,0.05175,7.657,4.84,75.0,10.82,42.29
0.146,0.08275,7.657,4.836,75.0,10.82,42.12
0.144,0.06725,7.654,4.835,75.0,10.82,41.94
-0.046,0.057,7.652,4.834,75.0,10.82,41.78
-0.052,0.0725,7.65,4.834,82.0,10.82,41.66
-0.041,0.057,7.649,4.833,82.0,10.82,41.54
-0.063,0.057,7.648,4.833,82.0,10.82,41.42
-0.07,0.057,7.647,4.831,82.0,10.82,41.45
0.016,0.05175,7.644,4.83,82.0,10.82,41.3
-0.091,0.0415,7.643,4.828,82.0,10.82,41.06
0.257,0.05175,7.64,4.828,82.0,10.82,40.89
-0.057,0.0465,7.639,4.826,82.0,10.82,40.67
0.043,0.03625,7.637,4.824,82.0,10.82,40.44
0.203,0.0465,7.637,4.825,82.0,10.82,40.24
0.056,0.0725,7.634,4.821,82.0,10.82,40.08
-0.057,0.05175,7.633,4.82,80.0,10.82,39.99
-0.041,0.06225,7.632,4.819,80.0,10.82,39.9
-0.05,0.06225,7.629,4.815,80.0,10.82,39.8
-0.071,0.05175,7.628,4.815,80.0,10.82,39.66
0.001,0.0415,7.625,4.815,80.0,10.82,39.64
-0.072,0.0465,7.623,4.815,80.0,10.82,39.68
0.296,0.08275,7.622,4.813,80.0,10.82,39.7
-0.135,0.05175,7.619,4.813,80.0,10.82,39.68
0.003,0.06225,7.617,4.813,80.0,10.82,39.74
0.162,0.057,7.617,4.811,80.0,10.82,39.75
0.097,0.0465,7.614,4.81,80.0,10.82,39.66
-0.062,0.057,7.613,4.81,82.0,10.82,39.6
-0.055,0.057,7.612,4.808,82.0,10.82,39.57
-0.062,0.0415,7.609,4.805,82.0,10.82,39.56
-0.087,0.057,7.608,4.804,82.0,10.82,39.44
-0.097,0.03625,7.607,4.806,82.0,10.82,39.38
-0.021,0.05175,7.604,4.804,82.0,10.82,39.47
-0.096,0.0465,7.603,4.803,82.0,10.82,39.71
0.257,0.07775,7.6,4.803,82.0,10.82,39.93
-0.143,0.057,7.598,4.801,82.0,10.82,40.1
-0.014,0.05175,7.597,4.798,82.0,10.82,40.3
0.133,0.0465,7.595,4.798,77.0,10.82,40.5
0.067,0.05175,7.593,4.795,77.0,10.82,40.72
-0.077,0.057,7.592,4.795,77.0,10.82,40.95
-0.066,0.06725,7.591,4.795,77.0,10.82,41.16
-0.074,0.06225,7.59,4.795,77.0,10.82,41.31
-0.1,0.0465,7.587,4.795,77.0,10.82,41.34
-0.044,0.06225,7.586,4.794,77.0,10.82,41.47
-0.097,0.057,7.585,4.793,77.0,10.82,41.67
0.27,0.08275,7.581,4.791,77.0,10.82,41.89
-0.172,0.06225,7.58,4.79,77.0,10.82,42.07
-0.032,0.06225,7.577,4.79,77.0,10.82,42.23
0.111,0.0465,7.575,4.786,83.0,10.82,42.35
0.074,0.05175,7.575,4.781,83.0,10.82,42.45
-0.072,0.0415,7.572,4.778,83.0,10.82,42.57
-0.063,0.0415,7.57,4.776,83.0,10.82,42.7
-0.064,0.06725,7.567,4.778,83.0,10.82,42.71
-0.089,0.05175,7.567,4.778,83.0,10.82,42.51
-0.078,0.0465,7.565,4.778,83.0,10.82,42.34
-0.016,0.0415,7.561,4.779,83.0,10.82,42.2
-0.071,0.057,7.56,4.778,83.0,10.82,42.05
0.195,0.10875,7.558,4.774,83.0,10.82,41.87
-0.054,0.05175,7.556,4.767,83.0,10.82,41.69
0.069,0.05175,7.555,4.764,83.0,10.82,41.5
0.183,0.031,7.552,4.773,83.0,10.82,41.3
0.0,0.0415,7.551,4.776,83.0,10.82,41.12
-0.058,0.05175,7.55,4.775,80.0,10.82,40.99
-0.038,0.057,7.547,4.767,80.0,10.82,40.84
-0.059,0.05175,7.545,4.769,80.0,10.82,40.62
-0.077,0.03625,7.545,4.772,80.0,10.82,40.35
-0.053,0.03625,7.542,4.77,80.0,10.82,40.21
-0.009,0.03625,7.54,4.759,80.0,10.82,40.13
-0.002,0.0465,7.537,4.76,80.0,10.82,40.04
0.153,0.057,7.537,4.767,80.0,10.82,39.95
-0.033,0.0725,7.535,4.768,80.0,10.82,39.88
0.096,0.0465,7.532,4.768,80.0,10.82,39.82
0.189,0.0415,7.53,4.759,80.0,10.82,39.77
-0.001,0.0415,7.53,4.759,80.0,10.82,39.74
-0.049,0.05175,7.527,4.764,78.0,10.82,39.75
-0.035,0.05175,7.526,4.767,78.0,10.82,39.73
-0.061,0.05175,7.525,4.753,78.0,10.82,39.61
-0.076,0.057,7.522,4.751,78.0,10.81,39.5
-0.078,0.031,7.521,4.758,78.0,10.81,39.48
-0.026,0.05175,7.52,4.764,78.0,10.81,39.5
-0.037,0.03625,7.517,4.762,78.0,10.81,39.52
0.273,0.06725,7.515,4.752,78.0,10.81,39.53
-0.111,0.09325,7.513,4.755,78.0,10.81,39.53
-0.01,0.0465,7.511,4.762,78.0,10.82,39.51
0.138,0.057,7.51,4.767,78.0,10.82,39.5
0.159,0.0465,7.508,4.766,78.0,10.81,39.5
-0.025,0.0725,7.506,4.767,78.0,10.81,39.51
-0.042,0.0465,7.505,4.769,72.0,10.81,39.56
-0.041,0.031,7.504,4.772,72.0,10.81,39.57
-0.07,0.0465,7.503,4.767,72.0,10.81,39.45
-0.085,0.0725,7.5,4.762,72.0,10.81,39.4
-0.089,0.057,7.499,4.761,72.0,10.81,39.52
-0.061,0.057,7.496,4.758,72.0,10.81,39.71
-0.035,0.0465,7.494,4.757,72.0,10.79,39.89
0.089,0.057,7.493,4.756,72.0,10.81,40.08
0.033,0.08275,7.491,4.751,72.0,10.79,40.25
-0.042,0.0465,7.49,4.754,72.0,10.81,40.44
0.087,0.0465,7.488,4.757,72.0,10.79,40.65
0.141,0.0415,7.486,4.754,72.0,10.81,40.87
-0.036,0.03625,7.485,4.743,72.0,10.79,41.13
-0.069,0.0465,7.484,4.731,70.0,10.81,41.39
-0.06,0.057,7.483,4.737,70.0,10.79,41.6
-0.086,0.0465,7.481,4.745,70.0,10.79,41.68
-0.103,0.057,7.479,4.749,70.0,10.79,41.76
-0.029,0.0465,7.478,4.753,70.0,10.79,41.9
-0.098,0.031,7.476,4.756,70.0,10.79,42.08
0.266,0.09325,7.474,4.759,70.0,10.79,42.24
-0.139,0.057,7.473,4.762,70.0,10.79,42.36
-0.002,0.057,7.47,4.763,70.0,10.79,42.45
0.143,0.0415,7.469,4.763,70.0,10.79,42.49
0.076,0.057,7.468,4.763,70.0,10.79,42.45
-0.064,0.057,7.465,4.764,80.0,10.79,42.37
-0.054,0.03625,7.463,4.766,80.0,10.79,42.25
-0.059,0.057,7.463,4.767,80.0,10.79,42.06
-0.081,0.05175,7.459,4.764,80.0,10.79,41.76
-0.075,0.031,7.458,4.764,80.0,10.79,41.53
-0.005,0.057,7.456,4.764,80.0,10.79,41.35
-0.09,0.05175,7.454,4.762,80.0,10.79,41.2
0.215,0.09325,7.451,4.757,80.0,10.79,41.04
-0.056,0.0465,7.449,4.756,80.0,10.79,40.9
0.058,0.0415,7.448,4.754,80.0,10.79,40.76
0.186,0.031,7.446,4.753,80.0,10.79,40.61
0.006,0.057,7.445,4.749,80.0,10.79,40.49
-0.069,0.0465,7.443,4.748,80.0,10.79,40.4
-0.049,0.06725,7.443,4.748,80.0,10.79,40.29
-0.069,0.05175,7.44,4.746,80.0,10.79,40.13
-0.09,0.0465,7.438,4.744,80.0,10.79,39.9
-0.082,0.057,7.436,4.743,80.0,10.79,39.79
-0.005,0.0415,7.435,4.743,80.0,10.79,39.75
-0.095,0.057,7.433,4.743,80.0,10.79,39.73
0.212,0.12425,7.431,4.743,80.0,10.79,39.69
-0.058,0.05175,7.43,4.744,80.0,10.79,39.66
0.05,0.06225,7.428,4.749,80.0,10.79,39.61
0.181,0.0415,7.428,4.757,80.0,10.79,39.58
0.01,0.05175,7.425,4.759,80.0,10.79,39.58
-0.069,0.0415,7.424,4.762,77.0,10.79,39.61
-0.054,0.06725,7.423,4.763,77.0,10.78,39.61
-0.073,0.05175,7.421,4.766,77.0,10.79,39.54
-0.091,0.0415,7.419,4.766,77.0,10.78,39.43
-0.095,0.0415,7.417,4.764,77.0,10.78,39.41
-0.04,0.03625,7.416,4.763,77.0,10.79,39.42
-0.055,0.0465,7.413,4.763,77.0,10.78,39.45
0.257,0.088,7.412,4.763,77.0,10.78,39.47
-0.13,0.0725,7.409,4.763,77.0,10.78,39.47
-0.028,0.0465,7.407,4.767,77.0,10.78,39.45
0.118,0.06225,7.406,4.774,77.0,10.78,39.44
0.136,0.0415,7.404,4.789,77.0,10.78,39.42
-0.046,0.031,7.403,4.804,77.0,10.79,39.44
-0.058,0.05175,7.401,4.812,73.0,10.79,39.46
-0.055,0.0465,7.401,4.816,73.0,10.78,39.47
-0.082,0.0465,7.398,4.821,73.0,10.78,39.35
-0.095,0.057,7.396,4.82,73.0,10.79,39.28
-0.098,0.0415,7.396,4.816,73.0,10.78,39.29
-0.068,0.05175,7.393,4.814,73.0,10.78,39.33
-0.039,0.05175,7.391,4.81,73.0,10.78,39.4
0.069,0.0465,7.389,4.806,73.0,10.78,39.45
0.046,0.06725,7.388,4.805,73.0,10.78,39.49
-0.047,0.057,7.386,4.806,73.0,10.78,39.56
0.082,0.05175,7.384,4.811,73.0,10.79,39.66
0.146,0.05175,7.383,4.816,73.0,10.78,39.8
-0.028,0.07775,7.381,4.82,73.0,10.78,39.98
-0.065,0.0465,7.378,4.819,70.0,10.78,40.18
-0.057,0.0415,7.377,4.814,70.0,10.78,40.37
-0.083,0.0415,7.376,4.813,70.0,10.78,40.44
-0.1,0.0465,7.374,4.809,70.0,10.78,40.5
-0.087,0.06225,7.373,4.805,70.0,10.78,40.69
-0.029,0.057,7.371,4.804,70.0,10.78,40.89
-0.051,0.0465,7.369,4.8,70.0,10.78,41.08
0.148,0.08275,7.367,4.799,70.0,10.78,41.24
-0.058,0.06225,7.366,4.791,70.0,10.78,41.4
0.059,0.0465,7.364,4.791,70.0,10.78,41.54
0.144,0.0465,7.362,4.79,70.0,10.78,41.68
-0.022,0.0415,7.361,4.788,70.0,10.78,41.85
-0.071,0.05175,7.358,4.788,76.0,10.78,42.03
-0.055,0.0415,7.358,4.784,76.0,10.78,42.16
-0.077,0.03625,7.356,4.78,76.0,10.78,42.19
-0.092,0.0465,7.353,4.772,76.0,10.78,42.14
-0.009,0.0415,7.352,4.767,76.0,10.78,42.08
-0.095,0.0725,7.351,4.763,76.0,10.78,42.01
0.268,0.08275,7.348,4.761,76.0,10.78,41.9
-0.116,0.057,7.346,4.764,76.0,10.78,41.75
0.01,0.031,7.344,4.767,76.0,10.78,41.59
0.168,0.0465,7.343,4.774,76.0,10.78,41.4
0.079,0.06225,7.342,4.781,76.0,10.78,41.23
-0.058,0.05175,7.339,4.786,80.0,10.78,41.1
-0.046,0.0465,7.338,4.788,80.0,10.78,40.96
-0.05,0.0415,7.337,4.788,80.0,10.78,40.81
-0.073,0.06725,7.336,4.788,80.0,10.78,40.54
-0.08,0.057,7.333,4.788,80.0,10.78,40.36
0.002,0.0415,7.332,4.782,80.0,10.79,40.26
-0.081,0.06225,7.331,4.78,80.0,10.78,40.17
0.287,0.088,7.329,4.78,80.0,10.79,40.09
-0.116,0.06725,7.327,4.779,80.0,10.79,40.01
0.009,0.057,7.325,4.774,80.0,10.79,39.92
0.172,0.05175,7.324,4.774,80.0,10.79,39.83
0.093,0.05175,7.322,4.774,80.0,10.79,39.79
-0.059,0.03625,7.32,4.78,77.0,10.79,39.79
-0.048,0.057,7.319,4.784,77.0,10.79,39.75
-0.055,0.0415,7.317,4.788,77.0,10.78,39.71
-0.082,0.0465,7.315,4.785,77.0,10.78,39.57
-0.091,0.0465,7.314,4.77,77.0,10.79,39.5
-0.091,0.03625,7.314,4.753,77.0,10.82,39.51
-0.036,0.057,7.31,4.753,77.0,10.84,39.51
-0.059,0.03625,7.309,4.762,77.0,10.85,39.52
0.287,0.0725,7.307,4.768,77.0,10.87,39.52
-0.147,0.07775,7.306,4.769,77.0,10.88,39.51
-0.021,0.05175,7.304,4.775,77.0,10.87,39.49
0.133,0.0725,7.301,4.784,77.0,10.84,39.47
0.147,0.05175,7.301,4.786,77.0,10.84,39.48
-0.041,0.0415,7.299,4.788,77.0,10.84,39.51
-0.054,0.0415,7.299,4.786,70.0,10.84,39.52
-0.049,0.06725,7.297,4.786,70.0,10.83,39.52
-0.074,0.05175,7.295,4.786,70.0,10.83,39.42
-0.089,0.03625,7.294,4.788,70.0,10.83,39.34
-0.092,0.0415,7.292,4.79,70.0,10.82,39.34
-0.085,0.05175,7.29,4.793,70.0,10.82,39.36
-0.03,0.0465,7.287,4.794,70.0,10.81,39.38
-0.092,0.0465,7.286,4.795,70.0,10.81,39.4
0.237,0.10875,7.284,4.791,70.0,10.81,39.41
-0.048,0.0415,7.284,4.786,70.0,10.81,39.4
0.048,0.0465,7.282,4.79,70.0,10.81,39.39
0.184,0.0465,7.279,4.791,70.0,10.81,39.41
0.036,0.057,7.279,4.793,70.0,10.79,39.42
-0.065,0.06225,7.277,4.791,68.0,10.79,39.46
-0.047,0.0465,7.276,4.79,68.0,10.79,39.47
-0.066,0.0465,7.275,4.79,68.0,10.79,39.44
-0.089,0.06225,7.274,4.79,68.0,10.79,39.35
-0.097,0.057,7.271,4.79,68.0,10.79,39.37
-0.095,0.057,7.27,4.784,68.0,10.79,39.44
-0.038,0.088,7.267,4.786,68.0,10.79,39.56
-0.104,0.0465,7.265,4.788,68.0,10.79,39.67
0.245,0.0725,7.264,4.791,68.0,10.79,39.81
-0.067,0.057,7.264,4.794,68.0,10.79,39.94
0.03,0.06225,7.261,4.79,68.0,10.79,40.07
0.168,0.0415,7.26,4.784,68.0,10.79,40.24
0.046,0.057,7.259,4.776,68.0,10.78,40.42
-0.07,0.03625,7.256,4.773,71.0,10.79,40.63
-0.056,0.0415,7.256,4.771,71.0,10.79,40.82
-0.072,0.031,7.254,4.768,71.0,10.79,40.94
-0.096,0.05175,7.252,4.766,71.0,10.79,40.98
-0.104,0.0465,7.25,4.769,71.0,10.79,41.11
-0.092,0.05175,7.249,4.777,71.0,10.78,41.29
-0.058,0.03625,7.246,4.786,71.0,10.78,41.46
-0.066,0.06225,7.245,4.788,71.0,10.78,41.6
0.2,0.09325,7.244,4.788,71.0,10.78,41.71
-0.047,0.0465,7.242,4.786,71.0,10.78,41.83
0.063,0.06225,7.24,4.785,71.0,10.79,41.92
0.162,0.05175,7.239,4.788,71.0,10.79,41.96
-0.006,0.057,7.237,4.784,71.0,10.79,41.94
-0.07,0.057,7.235,4.775,72.0,10.81,41.87
-0.052,0.0465,7.234,4.774,72.0,10.79,41.75
-0.07,0.0465,7.233,4.778,72.0,10.78,41.51
-0.09,0.0465,7.232,4.779,72.0,10.79,41.22
-0.09,0.0415,7.229,4.775,72.0,10.79,41.04
-0.038,0.0465,7.228,4.775,72.0,10.81,40.92
-0.087,0.03625,7.225,4.775,72.0,10.81,40.78
0.318,0.0725,7.224,4.774,72.0,10.81,40.66
-0.125,0.06225,7.222,4.772,72.0,10.81,40.53
0.011,0.06225,7.22,4.766,72.0,10.81,40.38
0.174,0.0415,7.218,4.763,72.0,10.82,40.26
0.118,0.05175,7.217,4.766,72.0,10.82,40.18
-0.053,0.0415,7.214,4.767,75.0,10.82,40.13
-0.05,0.0465,7.214,4.768,75.0,10.81,40.05
-0.045,0.05175,7.212,4.769,75.0,10.82,39.94
-0.069,0.03625,7.212,4.768,75.0,10.81,39.75
-0.08,0.0415,7.209,4.763,75.0,10.82,39.61
-0.053,0.057,7.207,4.754,75.0,10.82,39.57
-0.046,0.06725,7.205,4.749,75.0,10.83,39.58
0.061,0.06225,7.203,4.748,75.0,10.82,39.58
0.107,0.06725,7.202,4.749,75.0,10.82,39.58
-0.025,0.0465,7.2,4.754,75.0,10.82,39.55
0.101,0.03625,7.199,4.759,75.0,10.83,39.52
0.182,0.0415,7.197,4.761,75.0,10.83,39.5
-0.023,0.0465,7.197,4.763,75.0,10.84,39.52
-0.071,0.05175,7.193,4.763,74.0,10.84,39.56
-0.056,0.031,7.192,4.767,74.0,10.85,39.58
-0.077,0.06225,7.192,4.764,74.0,10.85,39.48
-0.095,0.0465,7.19,4.762,74.0,10.85,39.37
-0.099,0.0465,7.188,4.758,74.0,10.84,39.36
-0.055,0.0465,7.187,4.754,74.0,10.85,39.39
-0.085,0.0465,7.184,4.75,74.0,10.84,39.41
0.285,0.06225,7.182,4.75,74.0,10.84,39.43
-0.142,0.06225,7.18,4.759,74.0,10.84,39.43
-0.024,0.0415,7.179,4.763,74.0,10.84,39.42
0.124,0.0415,7.177,4.764,74.0,10.84,39.41
0.137,0.06225,7.175,4.764,74.0,10.84,39.41
-0.05,0.05175,7.174,4.768,74.0,10.84,39.44
-0.061,0.0415,7.173,4.767,72.0,10.84,39.46
-0.056,0.057,7.172,4.768,72.0,10.84,39.47
-0.083,0.0415,7.169,4.767,72.0,10.84,39.38
-0.098,0.0465,7.169,4.763,72.0,10.85,39.31
-0.102,0.03625,7.165,4.764,72.0,10.84,39.31
-0.061,0.057,7.164,4.767,72.0,10.84,39.38
-0.081,0.0465,7.162,4.768,72.0,10.84,39.46
0.253,0.08275,7.16,4.766,72.0,10.84,39.55
-0.107,0.0465,7.159,4.763,72.0,10.85,39.65
-0.029,0.05175,7.158,4.763,72.0,10.87,39.75
0.111,0.0465,7.157,4.761,72.0,10.89,39.87
0.136,0.0465,7.155,4.762,72.0,10.9,40.02
-0.047,0.03625,7.153,4.761,72.0,10.88,40.21
-0.067,0.057,7.152,4.761,71.0,10.83,40.37
-0.055,0.05175,7.15,4.761,71.0,10.82,40.54
-0.08,0.0415,7.148,4.757,71.0,10.82,40.6
-0.096,0.0465,7.147,4.754,71.0,10.82,40.66
-0.096,0.0465,7.146,4.752,71.0,10.81,40.83
-0.06,0.06225,7.145,4.751,71.0,10.79,41.02
-0.077,0.057,7.142,4.751,71.0,10.78,41.21
0.267,0.088,7.142,4.751,71.0,10.78,41.38
-0.094,0.0725,7.14,4.751,71.0,10.78,41.54
-0.008,0.06225,7.14,4.751,71.0,10.78,41.66
0.126,0.031,7.137,4.748,71.0,10.78,41.79
0.143,0.0465,7.136,4.744,71.0,10.78,41.95
-0.034,0.05175,7.135,4.743,71.0,10.78,42.12
-0.044,0.03625,7.132,4.741,71.0,10.78,42.27
-0.034,0.0415,7.131,4.739,71.0,10.78,42.36
-0.058,0.0465,7.13,4.741,71.0,10.78,42.23
-0.067,0.0465,7.13,4.741,71.0,10.78,42.06
-0.061,0.0465,7.127,4.741,71.0,10.77,41.94
-0.006,0.05175,7.125,4.741,71.0,10.77,41.82
-0.067,0.05175,7.125,4.738,71.0,10.77,41.68
0.289,0.07775,7.122,4.738,71.0,10.77,41.52
-0.019,0.031,7.121,4.738,71.0,10.77,41.37
0.08,0.0415,7.118,4.737,71.0,10.77,41.18
0.225,0.06225,7.117,4.736,71.0,10.77,41.03
0.061,0.057,7.116,4.736,71.0,10.78,40.91
-0.042,0.05175,7.115,4.736,74.0,10.77,40.81
-0.023,0.0465,7.112,4.733,74.0,10.77,40.71
-0.033,0.031,7.111,4.731,74.0,10.77,40.55
-0.055,0.05175,7.11,4.731,74.0,10.77,40.28
-0.056,0.03625,7.107,4.728,74.0,10.77,40.12
-0.01,0.0465,7.106,4.728,74.0,10.77,40.06
-0.042,0.0465,7.103,4.726,74.0,10.77,40.01
0.342,0.07775,7.102,4.729,74.0,10.77,39.94
-0.098,0.057,7.1,4.729,74.0,10.77,39.88
0.018,0.0465,7.098,4.728,74.0,10.77,39.79
0.17,0.057,7.097,4.726,74.0,10.77,39.74
0.181,0.0465,7.095,4.724,74.0,10.77,39.7
-0.02,0.0415,7.093,4.723,74.0,10.77,39.69
-0.039,0.05175,7.092,4.723,74.0,10.76,39.68
-0.029,0.0415,7.09,4.721,74.0,10.77,39.64
-0.055,0.0465,7.088,4.721,74.0,10.77,39.49
-0.071,0.0415,7.087,4.721,74.0,10.77,39.4
-0.074,0.03625,7.085,4.719,74.0,10.76,39.39
-0.023,0.03625,7.082,4.718,74.0,10.77,39.39
-0.071,0.05175,7.081,4.718,74.0,10.76,39.41
0.326,0.0725,7.08,4.718,74.0,10.77,39.4
-0.127,0.07775,7.077,4.714,74.0,10.77,39.39
0.009,0.0415,7.077,4.713,74.0,10.73,39.35
0.166,0.0465,7.075,4.711,74.0,10.81,39.33
0.135,0.057,7.073,4.711,74.0,10.77,39.33
-0.044,0.0465,7.072,4.711,74.0,10.79,39.37
-0.046,0.0415,7.07,4.708,72.0,10.77,39.38
-0.047,0.0415,7.07,4.708,72.0,10.78,39.36
-0.071,0.0415,7.068,4.709,72.0,10.78,39.22
-0.085,0.05175,7.068,4.711,72.0,10.78,39.15
-0.086,0.0415,7.065,4.713,72.0,10.98,39.15
-0.054,0.07775,7.064,4.717,72.0,11.33,39.17
-0.06,0.05175,7.063,4.723,72.0,10.83,39.19
0.159,0.0465,7.06,4.733,72.0,10.93,39.22
0.0,0.09325,7.058,4.741,72.0,11.07,39.26
-0.031,0.06225,7.058,4.744,72.0,11.1,39.33
0.1,0.0415,7.055,4.746,72.0,11.48,39.42
0.162,0.0415,7.054,4.746,72.0,12.83,39.55
-0.032,0.05175,7.053,4.746,72.0,12.25,39.73
-0.067,0.03625,7.051,4.744,70.0,12.2,39.89
-0.059,0.0465,7.05,4.743,70.0,12.78,40.05
-0.084,0.05175,7.048,4.741,70.0,11.5,40.08
-0.101,0.0465,7.048,4.739,70.0,10.71,40.14
-0.104,0.06725,7.046,4.738,70.0,11.53,40.3
-0.06,0.05175,7.044,4.734,70.0,11.55,40.49
-0.096,0.05175,7.043,4.733,70.0,11.6,40.67
0.293,0.07775,7.043,4.733,70.0,12.15,40.82
-0.145,0.06225,7.04,4.731,70.0,12.4,40.97
-0.016,0.03625,7.04,4.729,70.0,13.65,41.1
0.125,0.0465,7.038,4.726,70.0,14.87,41.26
0.108,0.0465,7.038,4.724,70.0,14.87,41.44
-0.063,0.03625,7.035,4.722,72.0,13.94,41.63
-0.064,0.0465,7.034,4.718,72.0,15.24,41.82
-0.064,0.03625,7.033,4.717,72.0,14.24,41.95
-0.088,0.057,7.031,4.716,72.0,12.73,41.96
-0.097,0.057,7.03,4.714,72.0,11.67,42.02
-0.055,0.0465,7.028,4.712,72.0,11.68,42.12
-0.082,0.031,7.026,4.709,72.0,11.9,42.18
0.293,0.08275,7.025,4.708,72.0,12.84,42.12
-0.124,0.057,7.023,4.708,72.0,12.6,42.0
-0.01,0.06225,7.02,4.708,72.0,10.99,41.83
0.139,0.0415,7.019,4.704,72.0,10.5,41.63
0.143,0.057,7.018,4.699,72.0,10.66,41.44
-0.04,0.0415,7.016,4.694,72.0,10.82,41.31
-0.052,0.05175,7.015,4.693,76.0,11.1,41.17
-0.042,0.0415,7.013,4.691,76.0,11.42,41.0
-0.068,0.0415,7.013,4.688,76.0,11.43,40.68
-0.079,0.0465,7.01,4.688,76.0,11.66,40.41
-0.031,0.05175,7.009,4.686,76.0,11.54,40.27
-0.077,0.057,7.008,4.686,76.0,11.23,40.15
0.335,0.0725,7.005,4.686,76.0,10.94,40.03
-0.145,0.0725,7.003,4.688,76.0,10.79,39.91
0.0,0.07775,7.003,4.686,76.0,10.85,39.81
0.161,0.0415,7.0,4.686,76.0,10.73,39.71
0.143,0.0415,6.999,4.684,76.0,10.81,39.64
-0.047,0.0415,6.998,4.681,76.0,11.21,39.6
-0.052,0.03625,6.996,4.681,78.0,12.28,39.57
-0.048,0.0465,6.995,4.679,78.0,12.06,39.53
-0.073,0.0415,6.994,4.679,78.0,11.66,39.38
-0.084,0.03625,6.993,4.679,78.0,11.26,39.29
-0.04,0.057,6.99,4.679,78.0,11.11,39.29
-0.073,0.0465,6.989,4.677,78.0,10.98,39.29
0.304,0.0725,6.988,4.676,78.0,10.78,39.29
-0.131,0.05175,6.986,4.674,78.0,10.88,39.3
-0.011,0.05175,6.985,4.674,78.0,11.27,39.28
0.137,0.03625,6.985,4.674,78.0,12.16,39.27
0.154,0.0465,6.983,4.676,78.0,12.27,39.26
-0.04,0.0415,6.981,4.676,78.0,12.0,39.31
-0.054,0.06725,6.98,4.674,76.0,11.02,39.36
-0.048,0.057,6.978,4.671,76.0,10.85,39.37
-0.074,0.0415,6.978,4.672,76.0,11.57,39.26
-0.088,0.06725,6.976,4.671,76.0,11.57,39.18
-0.087,0.0465,6.974,4.671,76.0,11.73,39.17
-0.029,0.06225,6.973,4.669,76.0,11.04,39.18
-0.102,0.057,6.971,4.669,76.0,10.52,39.2
0.249,0.0725,6.969,4.666,76.0,11.24,39.22
-0.062,0.06725,6.968,4.665,76.0,11.85,39.25
0.027,0.057,6.968,4.665,76.0,11.59,39.28
0.172,0.0415,6.964,4.665,76.0,11.44,39.33
0.048,0.057,6.963,4.664,76.0,12.07,39.46
-0.07,0.0465,6.962,4.66,74.0,12.86,39.63
-0.058,0.057,6.961,4.657,74.0,12.77,39.8
-0.072,0.21225,6.959,4.656,74.0,12.95,39.91
-0.1,0.20725,6.958,4.654,74.0,12.42,39.95
-0.103,0.176,6.956,4.651,74.0,11.72,40.1
-0.074,0.1605,6.954,4.649,74.0,11.37,40.3
-0.086,0.1035,6.953,4.649,74.0,11.44,40.51
0.221,0.1295,6.951,4.649,74.0,11.46,40.74
-0.083,0.0985,6.951,4.649,74.0,11.66,41.38
-0.036,0.145,6.951,4.649,74.0,12.04,42.36
0.099,0.1555,6.948,4.649,74.0,12.25,43.21
0.121,0.15025,6.947,4.646,74.0,12.15,43.81
-0.066,0.19175,6.944,4.647,74.0,11.53,44.14
-0.076,0.1865,6.943,4.649,74.0,10.99,44.43
-0.072,0.114,6.941,4.649,74.0,11.57,44.55
-0.099,0.1035,6.941,4.647,74.0,12.62,44.68
-0.084,0.1605,6.939,4.646,74.0,12.29,44.88
-0.044,0.145,6.938,4.649,74.0,10.95,45.59
-0.026,0.18125,6.936,4.649,74.0,10.88,46.28
0.143,0.233,6.934,4.647,74.0,11.46,46.61
-0.058,0.378,6.933,4.647,74.0,11.64,46.52
0.07,0.18125,6.932,4.645,74.0,11.53,46.3
0.163,0.228,6.931,4.644,82.0,11.82,46.1
-0.026,0.176,6.929,4.641,82.0,11.68,45.91
-0.067,0.171,6.928,4.641,82.0,11.32,45.76
-0.052,0.16575,6.926,4.64,82.0,11.4,45.66
-0.072,0.057,6.926,4.639,82.0,11.29,45.46
-0.023,0.0985,6.923,4.636,82.0,11.34,45.32
-0.072,0.0725,6.921,4.636,82.0,11.59,45.13
0.316,0.10875,6.921,4.634,82.0,11.49,44.97
-0.164,0.0725,6.918,4.632,82.0,11.59,44.85
-0.034,0.11925,6.917,4.631,82.0,11.95,44.48
0.135,0.088,6.916,4.63,82.0,11.92,44.02
0.142,0.057,6.914,4.629,82.0,12.17,43.61
-0.05,0.0415,6.913,4.629,82.0,12.32,42.81
-0.062,0.0415,6.911,4.627,86.0,12.17,41.91
-0.049,0.0465,6.911,4.626,86.0,12.2,41.93
-0.077,0.057,6.909,4.625,86.0,11.7,42.47
-0.039,0.05175,6.908,4.624,86.0,11.68,42.82
-0.042,0.06225,6.906,4.622,86.0,11.96,42.36
0.18,0.20725,6.904,4.621,86.0,12.25,41.49
-0.035,0.13475,6.902,4.621,86.0,12.16,40.93
-0.038,0.1295,6.901,4.621,86.0,12.04,40.79
0.116,0.08275,6.899,4.62,86.0,12.11,40.72
0.171,0.0415,6.898,4.619,86.0,12.17,40.57
-0.032,0.0415,6.896,4.617,86.0,12.05,40.26
-0.06,0.0725,6.896,4.616,83.0,11.88,39.96
-0.057,0.0415,6.893,4.614,83.0,11.71,39.95
-0.085,0.0465,6.893,4.614,83.0,11.31,40.09
-0.102,0.0465,6.892,4.612,83.0,11.5,40.05
-0.026,0.03625,6.89,4.61,83.0,11.79,40.01
-0.112,0.0465,6.889,4.609,83.0,11.61,40.09
0.258,0.088,6.886,4.607,83.0,11.56,40.27
-0.149,0.06225,6.886,4.606,83.0,11.9,40.45
-0.024,0.05175,6.885,4.605,83.0,12.12,40.62
0.129,0.0415,6.884,4.602,80.0,11.71,40.8
0.065,0.057,6.884,4.601,80.0,11.81,41.0
-0.087,0.05175,6.882,4.601,80.0,12.29,41.22
-0.08,0.0415,6.881,4.6,80.0,12.42,41.42
-0.088,0.0465,6.879,4.599,80.0,12.29,41.52
-0.115,0.0415,6.879,4.597,80.0,12.05,41.5
-0.074,0.0415,6.876,4.595,80.0,11.61,41.57
-0.09,0.057,6.875,4.594,80.0,11.48,41.72
0.198,0.05175,6.874,4.592,80.0,11.35,41.9
-0.126,0.088,6.872,4.59,80.0,11.2,42.04
-0.065,0.0465,6.87,4.589,80.0,11.21,42.19
0.079,0.03625,6.869,4.588,82.0,10.9,42.31
0.102,0.057,6.869,4.587,82.0,10.9,42.43
-0.07,0.0465,6.867,4.584,82.0,10.91,42.62
-0.083,0.0415,6.865,4.582,82.0,10.66,42.84
-0.074,0.057,6.864,4.582,82.0,10.61,43.04
-0.098,0.0415,6.864,4.579,82.0,10.5,43.03
-0.061,0.057,6.861,4.578,82.0,10.46,42.99
0.204,0.07775,6.86,4.577,82.0,11.33,42.89
0.3,0.0985,6.859,4.574,82.0,11.39,42.72
-0.06,0.07775,6.856,4.574,82.0,11.12,42.5
-0.047,0.0415,6.855,4.572,83.0,11.42,42.28
0.107,0.05175,6.854,4.572,83.0,11.59,41.99
0.15,0.031,6.851,4.569,83.0,11.44,41.53
-0.044,0.031,6.851,4.569,83.0,11.24,41.51
-0.066,0.0985,6.851,4.567,83.0,11.45,41.32
-0.056,0.19675,6.849,4.567,83.0,12.1,41.11
-0.08,0.12425,6.847,4.564,83.0,12.04,40.77
-0.092,0.29525,6.846,4.564,83.0,11.92,40.47
-0.032,0.42475,6.844,4.562,83.0,12.21,40.46
-0.067,0.35225,6.844,4.562,83.0,12.64,40.46
0.307,0.33675,6.841,4.559,83.0,12.65,40.51
-0.15,0.2485,6.84,4.559,83.0,12.66,40.58
-0.03,0.373,6.839,4.557,83.0,12.87,41.02
0.132,0.435,6.839,4.559,83.0,12.5,41.45
0.145,0.3575,6.836,4.558,83.0,12.18,41.46
-0.047,0.663,6.835,4.557,83.0,12.17,41.29
-0.061,0.5645,6.834,4.557,78.0,12.45,41.28
-0.056,0.29525,6.834,4.554,78.0,12.59,41.45
-0.086,0.20725,6.831,4.555,78.0,12.36,41.56
-0.106,0.259,6.83,4.558,78.0,12.42,41.73
-0.053,0.15025,6.829,4.557,78.0,12.94,42.04
-0.09,0.05175,6.827,4.557,78.0,12.83,42.33
0.262,0.16575,6.826,4.557,78.0,12.56,42.38
-0.175,0.32125,6.824,4.554,78.0,12.33,42.25
-0.059,0.13975,6.821,4.554,78.0,12.72,42.09
0.088,0.435,6.821,4.554,77.0,14.21,42.32
0.089,0.32625,6.82,4.553,77.0,13.93,42.58
-0.087,0.38325,6.817,4.552,77.0,14.47,42.54
-0.092,0.45575,6.816,4.549,77.0,14.37,42.42
-0.093,0.09325,6.814,4.549,77.0,14.69,42.45
-0.117,0.31075,6.814,4.549,77.0,14.47,42.53
-0.102,0.32125,6.814,4.549,77.0,14.14,42.72
-0.074,0.2175,6.811,4.548,77.0,13.75,43.08
-0.039,0.145,6.81,4.545,77.0,14.13,43.43
0.043,0.36775,6.809,4.544,77.0,14.48,43.65
-0.112,0.21225,6.806,4.544,77.0,13.52,43.73
0.021,0.31075,6.805,4.543,77.0,12.33,43.71
0.099,0.13975,6.804,4.542,82.0,11.51,43.62
-0.088,0.29,6.803,4.539,82.0,11.13,43.45
-0.128,0.20725,6.802,4.539,82.0,11.21,43.24
-0.119,0.1295,6.8,4.539,82.0,10.99,43.09
-0.147,0.22275,6.799,4.538,82.0,10.95,42.81
-0.165,0.26425,6.797,4.537,82.0,11.77,42.55
-0.163,0.2175,6.797,4.535,82.0,12.92,42.38
-0.06,0.1865,6.794,4.535,82.0,13.53,42.26
-0.167,0.233,6.793,4.533,82.0,13.47,42.28
0.197,0.19175,6.792,4.532,82.0,13.81,42.81
-0.113,0.19675,6.79,4.532,82.0,13.34,43.03
-0.009,0.285,6.789,4.53,82.0,13.31,42.98
0.152,0.26925,6.787,4.529,75.0,12.99,42.95
0.037,0.1865,6.787,4.528,75.0,12.62,43.09
-0.088,0.2745,6.785,4.525,75.0,12.76,43.25
-0.068,0.3005,6.784,4.524,75.0,12.44,43.36
-0.083,0.2175,6.784,4.524,75.0,13.03,43.28
-0.105,0.22275,6.782,4.524,75.0,13.77,42.93
-0.11,0.2745,6.779,4.524,75.0,14.58,42.59
-0.029,0.202,6.779,4.524,75.0,14.55,42.34
-0.103,0.2175,6.777,4.525,75.0,13.58,42.1
0.251,0.29525,6.777,4.525,75.0,12.07,41.83
-0.141,0.2175,6.775,4.527,75.0,12.16,41.67
-0.016,0.3005,6.774,4.527,75.0,14.59,41.61
0.139,0.09325,6.774,4.527,75.0,16.09,41.6
0.084,0.088,6.772,4.528,75.0,15.24,41.74
-0.059,0.11925,6.772,4.528,76.0,14.13,41.86
-0.054,0.1295,6.772,4.528,76.0,14.42,41.9
-0.07,0.0725,6.772,4.529,76.0,16.29,41.84
-0.093,0.06225,6.772,4.529,76.0,17.95,41.59
-0.089,0.12425,6.772,4.529,76.0,18.37,41.69
-0.027,0.19175,6.772,4.529,76.0,16.3,41.93
-0.089,0.487,6.772,4.53,76.0,13.23,42.0
0.166,0.202,6.772,4.53,76.0,10.4,41.94
-0.078,0.233,6.772,4.53,76.0,9.83,41.95
0.038,0.145,6.772,4.532,76.0,9.91,41.99
0.138,0.176,6.772,4.532,76.0,10.02,42.08
-0.017,0.1605,6.769,4.532,76.0,10.55,42.34
-0.076,0.1865,6.769,4.53,80.0,11.99,42.96
-0.067,0.22275,6.769,4.53,80.0,11.45,43.3
-0.09,0.259,6.769,4.53,80.0,11.34,43.44
-0.04,0.1035,6.769,4.529,80.0,11.21,43.52
-0.074,0.19675,6.769,4.528,80.0,11.32,43.46
0.239,0.3005,6.767,4.527,80.0,11.4,43.41
-0.146,0.1605,6.767,4.527,80.0,11.22,43.59
-0.036,0.06725,6.765,4.525,80.0,11.18,43.84
0.088,0.145,6.762,4.524,80.0,11.1,44.09
0.078,0.08275,6.762,4.522,80.0,11.46,44.38
-0.063,0.07775,6.759,4.522,80.0,12.0,44.54
-0.06,0.13475,6.759,4.519,88.0,13.3,44.77
-0.066,0.13975,6.757,4.519,88.0,16.21,44.83
-0.08,0.114,6.755,4.517,88.0,23.55,44.63
0.021,0.088,6.753,4.517,88.0,34.77,44.38
-0.101,0.057,6.752,4.517,88.0,36.63,44.44
0.235,0.06725,6.748,4.515,88.0,22.82,44.41
-0.051,0.057,6.747,4.514,88.0,13.76,44.3
0.056,0.06225,6.744,4.513,88.0,12.4,44.3
0.182,0.06725,6.744,4.512,88.0,11.71,44.29
0.039,0.0725,6.742,4.509,88.0,11.44,44.26
-0.03,0.07775,6.74,4.508,87.0,11.57,43.84
-0.019,0.0465,6.739,4.507,87.0,11.83,43.28
-0.042,0.0465,6.739,4.507,87.0,11.87,42.65
0.027,0.05175,6.738,4.505,87.0,11.93,41.94
-0.049,0.05175,6.735,4.505,87.0,11.98,41.61
0.311,0.1295,6.734,4.503,87.0,12.6,41.65
-0.108,0.09325,6.732,4.505,87.0,12.17,41.67
0.024,0.06725,6.729,4.502,87.0,11.45,41.63
0.173,0.0415,6.729,4.498,87.0,10.46,41.44
0.114,0.0415,6.728,4.497,87.0,10.29,41.2
-0.033,0.057,6.727,4.497,87.0,10.18,41.11
-0.026,0.031,6.727,4.5,90.0,10.04,41.11
-0.046,0.031,6.724,4.5,90.0,9.95,40.98
-0.032,0.05175,6.724,4.501,90.0,10.18,40.73
-0.028,0.0465,6.723,4.502,90.0,10.15,40.56
0.125,0.07775,6.722,4.506,90.0,10.26,40.58
-0.002,0.088,6.719,4.51,90.0,10.34,40.8
-0.041,0.0415,6.719,4.515,90.0,10.37,41.0
0.085,0.0465,6.719,4.524,90.0,10.35,41.17
0.125,0.057,6.719,4.531,90.0,10.48,41.36
-0.039,0.06725,6.722,4.541,90.0,10.62,41.57
-0.061,0.057,6.725,4.551,89.0,10.73,41.72
-0.064,0.06225,6.735,4.561,89.0,10.78,41.9
-0.069,0.0465,6.752,4.574,89.0,10.68,41.95
-0.043,0.057,6.773,4.589,89.0,10.62,42.04
0.011,0.057,6.801,4.603,89.0,10.73,42.22
0.068,0.08275,6.834,4.62,89.0,10.68,42.43
-0.056,0.057,6.874,4.631,89.0,10.73,42.57
0.066,0.057,6.919,4.643,89.0,10.82,42.66
0.114,0.06725,6.962,4.656,89.0,10.67,42.75
-0.036,0.0415,7.006,4.67,89.0,10.3,42.74
-0.051,0.06225,7.05,4.681,93.0,10.35,42.73
-0.042,0.0465,7.09,4.69,93.0,10.33,42.71
-0.06,0.0465,7.127,4.702,93.0,10.34,42.56
0.026,0.05175,7.16,4.713,93.0,10.34,42.34
-0.102,0.0415,7.195,4.722,93.0,10.29,42.23
0.238,0.1035,7.229,4.728,93.0,10.27,42.22
-0.057,0.0465,7.258,4.734,93.0,10.33,42.31
0.043,0.05175,7.286,4.739,93.0,10.33,42.41
0.175,0.0465,7.311,4.744,93.0,10.28,42.49
0.022,0.03625,7.335,4.752,93.0,10.33,42.59
-0.067,0.06225,7.354,4.757,89.0,10.37,42.74
-0.052,0.06725,7.373,4.761,89.0,10.37,42.75
-0.06,0.0465,7.392,4.761,89.0,10.38,42.6
0.005,0.0465,7.407,4.763,89.0,10.34,42.28
-0.105,0.05175,7.419,4.763,89.0,10.29,42.11
0.195,0.07775,7.429,4.766,89.0,10.34,41.96
-0.055,0.06725,7.436,4.766,89.0,10.34,41.83
0.06,0.32625,7.441,4.766,89.0,10.33,41.63
0.163,0.11925,7.446,4.766,89.0,10.34,41.47
0.009,0.05175,7.449,4.763,89.0,10.33,41.36
-0.046,0.0415,7.454,4.763,94.0,10.33,41.25
-0.038,0.05175,7.455,4.762,94.0,10.34,41.1
-0.053,0.0725,7.458,4.761,94.0,10.35,40.93
0.024,0.03625,7.455,4.759,94.0,10.35,41.13
-0.09,0.05175,7.453,4.758,94.0,10.35,41.46
0.204,0.0725,7.447,4.756,94.0,10.35,41.41
-0.046,0.06225,7.441,4.754,94.0,10.35,41.3
0.06,0.0465,7.438,4.753,94.0,10.35,41.18
0.166,0.0465,7.432,4.752,94.0,10.35,40.82
0.033,0.03625,7.426,4.749,94.0,10.35,40.51
-0.033,0.031,7.423,4.748,91.0,10.35,40.44
-0.031,0.05175,7.417,4.748,91.0,10.35,40.46
-0.063,0.0465,7.412,4.748,91.0,10.35,40.35
-0.047,0.06225,7.404,4.748,91.0,10.35,40.18
-0.015,0.1035,7.399,4.748,91.0,10.35,40.26
0.07,0.23825,7.393,4.748,91.0,10.37,40.42
0.049,0.34175,7.387,4.748,91.0,10.37,40.49
-0.039,0.07775,7.38,4.748,91.0,10.37,40.48
0.085,0.0725,7.374,4.748,91.0,10.37,40.43
0.123,0.07775,7.369,4.748,91.0,10.37,40.63
-0.02,0.05175,7.364,4.747,91.0,10.37,41.15
-0.041,0.05175,7.359,4.748,87.0,10.37,41.8
-0.051,0.03625,7.357,4.748,87.0,10.37,42.33
-0.082,0.0465,7.352,4.748,87.0,10.37,42.56
-0.024,0.0465,7.349,4.748,87.0,10.35,42.82
-0.085,0.06225,7.344,4.748,87.0,10.35,43.2
0.259,0.08275,7.341,4.748,87.0,10.35,43.52
-0.15,0.057,7.337,4.747,87.0,10.35,43.64
-0.014,0.0415,7.334,4.746,87.0,10.35,43.63
0.11,0.0465,7.332,4.743,87.0,10.35,43.66
0.071,0.0465,7.329,4.742,87.0,10.35,43.66
-0.044,0.05175,7.325,4.741,86.0,10.35,43.77
-0.034,0.0465,7.321,4.738,86.0,10.35,43.94
-0.054,0.05175,7.319,4.737,86.0,10.35,43.94
-0.077,0.05175,7.315,4.733,86.0,10.35,43.66
0.007,0.03625,7.312,4.733,86.0,10.35,43.3
-0.087,0.0465,7.307,4.729,86.0,10.35,43.0
0.256,0.1035,7.305,4.728,86.0,10.35,42.66
-0.098,0.057,7.3,4.724,86.0,10.35,42.25
0.019,0.1605,7.297,4.723,86.0,10.35,41.9
0.156,0.057,7.294,4.721,86.0,10.35,41.64
0.073,0.057,7.29,4.718,86.0,10.35,41.41
-0.039,0.0415,7.287,4.717,85.0,10.35,41.21
-0.025,0.06725,7.284,4.714,85.0,10.35,41.04
-0.051,0.0415,7.28,4.712,85.0,10.35,40.89
-0.076,0.0465,7.276,4.711,85.0,10.35,40.63
-0.02,0.057,7.272,4.708,85.0,10.35,40.51
-0.051,0.06225,7.27,4.706,85.0,10.35,40.47
0.284,0.06225,7.265,4.703,85.0,10.35,40.45
-0.148,0.07775,7.264,4.701,85.0,10.35,40.41
-0.013,0.0415,7.26,4.701,85.0,10.35,40.39
0.129,0.031,7.257,4.699,85.0,10.35,40.35
0.127,0.06225,7.255,4.696,85.0,10.35,40.32
-0.032,0.0415,7.252,4.693,85.0,10.35,40.3
-0.032,0.06225,7.25,4.692,82.0,10.35,40.3
-0.048,0.031,7.247,4.691,82.0,10.34,40.29
-0.074,0.05175,7.245,4.688,82.0,10.35,40.16
-0.088,0.06725,7.242,4.687,82.0,10.34,40.09
-0.041,0.0415,7.239,4.685,82.0,10.34,40.11
-0.03,0.08275,7.237,4.684,82.0,10.34,40.13
0.222,0.06725,7.234,4.681,82.0,10.35,40.17
-0.069,0.0725,7.232,4.68,82.0,10.34,40.19
-0.007,0.031,7.23,4.679,82.0,10.34,40.2
0.122,0.0465,7.228,4.676,82.0,10.34,40.22
0.151,0.05175,7.225,4.675,82.0,10.34,40.23
-0.013,0.0415,7.224,4.674,82.0,10.34,40.28
-0.029,0.05175,7.222,4.671,77.0,10.34,40.35
-0.037,0.03625,7.22,4.669,77.0,10.34,40.44
-0.072,0.0465,7.217,4.669,77.0,10.34,40.38
-0.086,0.05175,7.217,4.666,77.0,10.34,40.39
-0.029,0.07775,7.213,4.666,77.0,10.34,40.5
-0.066,0.05175,7.208,4.664,77.0,10.33,40.67
0.267,0.06225,7.205,4.662,77.0,10.33,40.81
-0.159,0.06725,7.202,4.661,77.0,10.34,40.92
-0.023,0.05175,7.2,4.659,77.0,10.33,41.03
0.107,0.0465,7.198,4.659,78.0,10.33,41.12
0.087,0.05175,7.194,4.656,78.0,10.33,41.24
-0.059,0.0415,7.192,4.655,78.0,10.33,41.39
-0.057,0.03625,7.189,4.654,78.0,10.33,41.54
-0.07,0.06725,7.187,4.651,78.0,10.33,41.65
-0.099,0.057,7.185,4.65,78.0,10.33,41.66
-0.09,0.0415,7.182,4.649,78.0,10.33,41.75
-0.033,0.03625,7.18,4.647,78.0,10.33,41.87
-0.046,0.05175,7.175,4.646,78.0,10.33,42.01
0.128,0.088,7.173,4.645,78.0,10.33,42.06
-0.06,0.031,7.17,4.642,78.0,10.33,42.06
0.061,0.07775,7.169,4.641,78.0,10.33,41.98
0.129,0.0415,7.167,4.64,81.0,10.33,41.87
-0.03,0.03625,7.164,4.639,81.0,10.33,41.74
-0.07,0.031,7.162,4.636,81.0,10.33,41.65
-0.064,0.0415,7.159,4.636,81.0,10.33,41.53
-0.094,0.0415,7.158,4.634,81.0,10.33,41.28
-0.113,0.03625,7.156,4.634,81.0,10.33,41.01
-0.065,0.0465,7.153,4.632,81.0,10.33,40.86
-0.078,0.05175,7.15,4.631,81.0,10.33,40.77
0.209,0.057,7.147,4.63,81.0,10.33,40.67
-0.139,0.07775,7.146,4.627,81.0,10.33,40.57
-0.059,0.0465,7.143,4.626,81.0,10.33,40.48
0.084,0.0415,7.142,4.626,79.0,10.33,40.39
0.107,0.0465,7.14,4.625,79.0,10.33,40.32
-0.074,0.0465,7.138,4.624,79.0,10.33,40.3
-0.085,0.0465,7.136,4.621,79.0,10.33,40.27
-0.081,0.06225,7.135,4.62,79.0,10.33,40.26
-0.108,0.06725,7.132,4.619,79.0,10.33,40.13
-0.12,0.05175,7.13,4.617,79.0,10.33,40.03
-0.113,0.057,7.128,4.617,79.0,10.34,40.03
-0.028,0.0415,7.126,4.615,79.0,10.33,40.07
-0.125,0.0465,7.122,4.614,79.0,10.33,40.09
0.191,0.08275,7.121,4.614,79.0,10.33,40.09
-0.081,0.031,7.118,4.611,79.0,10.33,40.1
0.025,0.03625,7.117,4.611,79.0,10.33,40.08
0.153,0.057,7.115,4.609,79.0,10.33,40.07
0.007,0.0415,7.113,4.609,79.0,10.33,40.08
-0.08,0.0415,7.111,4.607,74.0,10.33,40.11
-0.061,0.031,7.108,4.606,74.0,10.33,40.13
-0.082,0.06225,7.107,4.604,74.0,10.33,40.08
-0.101,0.07775,7.103,4.604,74.0,10.33,39.96
-0.105,0.031,7.102,4.604,74.0,10.33,39.95
-0.106,0.0415,7.1,4.601,74.0,10.33,39.97
-0.074,0.0465,7.096,4.6,74.0,10.34,40.01
-0.049,0.0415,7.093,4.599,74.0,10.34,40.03
0.05,0.06225,7.091,4.598,74.0,10.33,40.04
0.06,0.06225,7.09,4.598,74.0,10.33,40.03
-0.045,0.03625,7.087,4.597,74.0,10.33,40.02
0.085,0.0465,7.085,4.594,74.0,10.33,40.03
0.155,0.0465,7.082,4.593,74.0,10.33,40.03
-0.025,0.0415,7.08,4.593,74.0,10.33,40.08
-0.07,0.057,7.077,4.592,68.0,10.33,40.12
-0.059,0.031,7.076,4.59,68.0,10.33,40.13
-0.088,0.057,7.075,4.589,68.0,10.33,40.03
-0.106,0.0415,7.072,4.588,68.0,10.33,39.94
-0.113,0.0465,7.071,4.587,68.0,10.33,39.95
-0.111,0.031,7.068,4.584,68.0,10.33,39.97
-0.051,0.05175,7.066,4.584,68.0,10.33,40.01
-0.12,0.06225,7.064,4.583,68.0,10.33,40.03
0.22,0.0725,7.063,4.582,68.0,10.33,40.04
-0.083,0.06225,7.06,4.58,68.0,10.33,40.04
0.008,0.031,7.058,4.579,68.0,10.33,40.04
0.144,0.0465,7.055,4.578,68.0,10.33,40.06
0.022,0.06725,7.054,4.577,68.0,10.33,40.09
-0.095,0.0465,7.051,4.577,68.0,10.33,40.15
-0.077,0.06225,7.05,4.574,68.0,10.33,40.21
-0.091,0.0415,7.049,4.574,68.0,10.33,40.22
-0.116,0.03625,7.048,4.573,68.0,10.33,40.16
-0.123,0.05175,7.045,4.572,68.0,10.33,40.2
-0.123,0.057,7.043,4.572,68.0,10.33,40.29
-0.083,0.05175,7.041,4.569,68.0,10.33,40.42
-0.099,0.03625,7.039,4.569,68.0,10.33,40.52
0.232,0.06225,7.036,4.567,68.0,10.33,40.63
-0.126,0.07775,7.035,4.567,68.0,10.33,40.72
-0.04,0.0465,7.033,4.565,68.0,10.33,40.83
0.095,0.0415,7.033,4.564,68.0,10.33,40.94
0.109,0.031,7.03,4.563,68.0,10.33,41.1
-0.069,0.05175,7.028,4.562,68.0,10.33,41.27
-0.085,0.06225,7.026,4.562,69.0,10.33,41.43
-0.079,0.05175,7.025,4.56,69.0,10.33,41.57
-0.106,0.05175,7.023,4.558,69.0,10.33,41.59
-0.116,0.0465,7.02,4.557,69.0,10.33,41.64
-0.116,0.0465,7.019,4.557,69.0,10.33,41.77
-0.065,0.0415,7.016,4.555,69.0,10.33,41.94
-0.102,0.03625,7.014,4.555,69.0,10.33,42.08
0.294,0.07775,7.011,4.553,69.0,10.33,42.18
-0.148,0.057,7.01,4.553,69.0,10.33,42.21
-0.01,0.057,7.009,4.55,69.0,10.33,42.17
0.135,0.03625,7.008,4.55,69.0,10.33,42.09
0.095,0.0465,7.006,4.549,69.0,10.33,42.01
-0.073,0.0415,7.004,4.549,72.0,10.33,41.92
-0.069,0.0415,7.003,4.547,72.0,10.33,41.81
-0.063,0.057,7.001,4.547,72.0,10.33,41.64
-0.087,0.0465,7.0,4.544,72.0,10.33,41.37
-0.099,0.0465,6.998,4.544,72.0,10.33,41.15
-0.102,0.031,6.996,4.543,72.0,10.33,41.03
-0.052,0.03625,6.994,4.542,72.0,10.33,40.96
-0.095,0.0415,6.993,4.542,72.0,10.33,40.91
0.319,0.08275,6.99,4.54,72.0,10.33,40.84
-0.146,0.07775,6.989,4.539,72.0,10.33,40.76
-0.003,0.05175,6.988,4.538,72.0,10.33,40.65
0.159,0.05175,6.986,4.537,72.0,10.33,40.55
0.12,0.057,6.984,4.537,72.0,10.33,40.48
-0.06,0.05175,6.983,4.534,72.0,10.33,40.45
-0.058,0.057,6.981,4.534,71.0,10.33,40.4
-0.046,0.0465,6.98,4.532,71.0,10.33,40.36
-0.069,0.057,6.978,4.532,71.0,10.33,40.2
-0.081,0.0465,6.978,4.532,71.0,10.33,40.1
-0.081,0.05175,6.976,4.529,71.0,10.33,40.1
-0.039,0.057,6.973,4.528,71.0,10.33,40.1
-0.049,0.05175,6.971,4.527,71.0,10.33,40.11
0.266,0.0725,6.969,4.527,71.0,10.33,40.11
-0.048,0.088,6.967,4.525,71.0,10.33,40.1
0.01,0.05175,6.966,4.524,71.0,10.33,40.08
0.155,0.057,6.963,4.524,71.0,10.33,40.07
0.195,0.03625,6.962,4.523,71.0,10.33,40.07
-0.01,0.031,6.961,4.522,71.0,10.33,40.1
-0.036,0.0415,6.958,4.519,70.0,10.33,40.12
-0.022,0.05175,6.958,4.519,70.0,10.33,40.12
-0.044,0.0415,6.956,4.519,70.0,10.33,40.02
-0.057,0.0415,6.956,4.517,70.0,10.33,39.94
-0.058,0.03625,6.953,4.517,70.0,10.33,39.95
-0.056,0.03625,6.951,4.517,70.0,10.33,39.96
0.0,0.0415,6.948,4.514,70.0,10.33,39.99
-0.056,0.07775,6.947,4.513,70.0,10.33,40.01
0.322,0.06725,6.946,4.513,70.0,10.33,40.02
-0.063,0.05175,6.942,4.51,70.0,10.33,40.03
0.048,0.031,6.941,4.512,70.0,10.33,40.03
0.202,0.057,6.939,4.509,70.0,10.33,40.08
0.128,0.03625,6.937,4.507,70.0,10.33,40.14
-0.036,0.06725,6.936,4.509,70.0,10.33,40.21
-0.033,0.06225,6.934,4.507,67.0,10.33,40.3
-0.035,0.06725,6.933,4.506,67.0,10.33,40.36
-0.063,0.057,6.932,4.505,67.0,10.33,40.33
-0.076,0.05175,6.931,4.502,67.0,10.33,40.39
-0.078,0.0415,6.929,4.502,67.0,10.33,40.53
-0.075,0.06225,6.927,4.502,67.0,10.33,40.69
-0.025,0.03625,6.924,4.501,67.0,10.33,40.83
-0.079,0.05175,6.923,4.501,67.0,10.33,40.95
0.265,0.088,6.921,4.498,67.0,10.33,41.08
-0.03,0.057,6.919,4.498,67.0,10.33,41.2
0.067,0.03625,6.918,4.497,67.0,10.33,41.32
0.196,0.0465,6.916,4.496,67.0,10.33,41.48
0.048,0.0415,6.914,4.495,67.0,10.33,41.65
-0.051,0.0415,6.913,4.495,67.0,10.33,41.82
-0.039,0.0465,6.911,4.492,67.0,10.33,41.96
-0.055,0.0465,6.908,4.492,67.0,10.33,42.02
-0.079,0.0415,6.908,4.492,67.0,10.33,42.0
-0.088,0.031,6.906,4.49,67.0,10.33,42.08
-0.085,0.057,6.904,4.49,67.0,10.33,42.2
-0.031,0.0725,6.902,4.488,67.0,10.33,42.32
-0.087,0.0415,6.899,4.487,67.0,10.33,42.43
0.297,0.06725,6.898,4.486,67.0,10.33,42.53
-0.066,0.0465,6.896,4.485,67.0,10.33,42.55
0.047,0.06225,6.894,4.485,67.0,10.33,42.51
0.2,0.06225,6.893,4.485,67.0,10.33,42.44
0.098,0.06225,6.892,4.482,67.0,10.33,42.36
-0.04,0.0415,6.89,4.482,70.0,10.33,42.26
-0.029,0.057,6.889,4.482,70.0,10.33,42.1
-0.033,0.057,6.887,4.48,70.0,10.33,41.9
-0.057,0.057,6.886,4.477,70.0,10.33,41.61
-0.065,0.0415,6.884,4.477,70.0,10.33,41.42
-0.065,0.026,6.884,4.477,70.0,10.33,41.3
-0.008,0.03625,6.881,4.475,70.0,10.33,41.2
-0.071,0.0725,6.879,4.475,70.0,10.33,41.1
0.311,0.0725,6.879,4.473,70.0,10.33,41.0
-0.046,0.057,6.876,4.473,70.0,10.33,40.89
0.053,0.03625,6.874,4.472,70.0,10.33,40.79
0.221,0.057,6.872,4.472,70.0,10.33,40.71
0.103,0.0415,6.871,4.47,70.0,10.33,40.63
-0.045,0.0465,6.869,4.468,71.0,10.33,40.6
-0.035,0.03625,6.867,4.468,71.0,10.33,40.53
-0.037,0.0465,6.866,4.468,71.0,10.33,40.43
-0.062,0.0415,6.864,4.467,71.0,10.33,40.23
-0.074,0.03625,6.864,4.465,71.0,10.33,40.13
-0.076,0.0465,6.861,4.465,71.0,10.33,40.11
-0.022,0.026,6.86,4.465,71.0,10.33,40.08
-0.081,0.0415,6.857,4.462,71.0,10.33,40.06
0.303,0.088,6.856,4.462,71.0,10.33,40.04
-0.082,0.0465,6.854,4.461,71.0,10.33,40.02
0.024,0.057,6.852,4.461,71.0,10.33,39.98
0.193,0.0415,6.85,4.46,71.0,10.33,39.97
0.11,0.03625,6.849,4.46,71.0,10.33,39.97
-0.051,0.057,6.847,4.457,70.0,10.33,40.0
-0.045,0.0415,6.845,4.457,70.0,10.33,40.0
-0.047,0.0465,6.844,4.456,70.0,10.33,39.98
-0.073,0.03625,6.842,4.455,70.0,10.33,39.86
-0.083,0.0465,6.841,4.452,70.0,10.33,39.81
-0.086,0.06225,6.839,4.452,70.0,10.33,39.84
-0.034,0.0415,6.837,4.452,70.0,10.33,39.86
-0.083,0.0415,6.835,4.451,70.0,10.33,39.9
0.319,0.0725,6.834,4.45,70.0,10.33,39.94
-0.136,0.057,6.831,4.45,70.0,10.33,39.96
-0.005,0.031,6.83,4.448,70.0,10.33,40.01
0.148,0.05175,6.829,4.447,70.0,10.33,40.07
0.117,0.05175,6.826,4.446,70.0,10.33,40.17
-0.064,0.03625,6.826,4.445,70.0,10.33,40.32
-0.071,0.0465,6.824,4.445,70.0,10.33,40.44
-0.07,0.0415,6.822,4.443,70.0,10.33,40.57
-0.097,0.05175,6.821,4.442,70.0,10.33,40.57
-0.11,0.031,6.82,4.44,70.0,10.33,40.69
-0.106,0.0465,6.819,4.44,70.0,10.33,40.87
-0.058,0.0465,6.816,4.44,70.0,10.33,41.09
-0.118,0.088,6.814,4.438,70.0,10.33,41.31
0.235,0.11925,6.812,4.437,70.0,10.33,41.49
-0.071,0.0415,6.811,4.437,70.0,10.33,41.65
0.024,0.0415,6.81,4.435,70.0,10.33,41.8
0.155,0.06225,6.809,4.435,70.0,10.33,41.95
0.014,0.03625,6.806,4.435,70.0,10.33,42.14
-0.088,0.0465,6.805,4.432,73.0,10.33,42.35
-0.075,0.0465,6.804,4.432,73.0,10.33,42.51
-0.091,0.0465,6.803,4.432,73.0,10.33,42.59
-0.112,0.0465,6.802,4.431,73.0,10.33,42.61
-0.109,0.0415,6.799,4.43,73.0,10.33,42.73
-0.063,0.03625,6.798,4.428,73.0,10.33,42.87
-0.113,0.03625,6.795,4.427,73.0,10.3,42.99
0.231,0.05175,6.794,4.427,73.0,10.3,43.05
-0.062,0.0415,6.793,4.427,73.0,10.3,42.98
0.042,0.0465,6.79,4.426,73.0,10.3,42.86
0.17,0.0415,6.789,4.427,73.0,10.3,42.72
0.007,0.05175,6.787,4.427,73.0,10.3,42.6
-0.081,0.0465,6.787,4.426,78.0,10.3,42.49
-0.063,0.03625,6.784,4.427,78.0,10.3,42.31
-0.075,0.0415,6.784,4.427,78.0,10.3,42.05
-0.095,0.0415,6.782,4.427,78.0,10.3,41.74
-0.089,0.05175,6.782,4.427,78.0,10.3,41.56
-0.044,0.03625,6.779,4.427,78.0,10.3,41.45
-0.093,0.0415,6.777,4.426,78.0,10.3,41.36
0.256,0.088,6.777,4.425,78.0,10.3,41.26
-0.049,0.05175,6.774,4.426,78.0,10.3,41.14
0.055,0.057,6.774,4.425,78.0,10.3,41.01
0.205,0.0465,6.773,4.425,78.0,10.32,40.92
0.026,0.0465,6.772,4.425,78.0,10.32,40.84
-0.071,0.0465,6.772,4.425,77.0,10.32,40.78
-0.05,0.0415,6.768,4.423,77.0,10.32,40.7
-0.058,0.0465,6.767,4.422,77.0,10.32,40.58
-0.077,0.0465,6.767,4.422,77.0,10.32,40.38
-0.08,0.031,6.764,4.422,77.0,10.32,40.29
-0.024,0.0415,6.763,4.422,77.0,10.3,40.24
-0.077,0.0465,6.762,4.42,77.0,10.32,40.22
0.342,0.0725,6.76,4.42,77.0,10.32,40.19
-0.113,0.06225,6.759,4.42,77.0,10.32,40.16
0.022,0.057,6.757,4.42,77.0,10.32,40.13
0.193,0.06225,6.757,4.419,77.0,10.32,40.09
0.146,0.05175,6.754,4.419,77.0,10.32,40.09
-0.038,0.05175,6.753,4.418,77.0,10.32,40.1
-0.041,0.0415,6.75,4.418,75.0,10.32,40.11
-0.036,0.0465,6.749,4.418,75.0,10.32,40.09
-0.061,0.06725,6.749,4.418,75.0,10.32,39.97
-0.074,0.03625,6.747,4.418,75.0,10.32,39.92
-0.075,0.0465,6.745,4.415,75.0,10.32,39.95
-0.069,0.05175,6.744,4.415,75.0,10.33,39.97
-0.015,0.06725,6.743,4.415,75.0,10.33,40.0
-0.081,0.0415,6.742,4.415,75.0,10.33,40.02
0.284,0.057,6.739,4.414,75.0,10.32,40.03
-0.035,0.057,6.738,4.414,75.0,10.32,40.03
0.057,0.0465,6.737,4.413,75.0,10.3,40.02
0.22,0.03625,6.735,4.411,75.0,10.3,40.03
0.088,0.03625,6.734,4.41,75.0,10.3,40.07
-0.046,0.03625,6.733,4.409,67.0,10.32,40.13
-0.036,0.06225,6.732,4.408,67.0,10.3,40.15
-0.042,0.0415,6.73,4.408,67.0,10.3,40.12
-0.071,0.03625,6.729,4.406,67.0,10.3,40.02
-0.084,0.031,6.727,4.406,67.0,10.3,40.04
-0.086,0.0465,6.727,4.405,67.0,10.32,40.11
-0.088,0.057,6.724,4.404,67.0,10.3,40.22
-0.045,0.0415,6.724,4.405,67.0,10.32,40.32
-0.085,0.057,6.722,4.404,67.0,10.32,40.41
0.327,0.088,6.722,4.403,67.0,10.32,40.5
-0.138,0.06225,6.719,4.403,67.0,10.32,40.61
-0.009,0.0415,6.718,4.403,67.0,10.32,40.76
0.138,0.05175,6.717,4.4,67.0,10.32,40.9
0.134,0.031,6.716,4.4,67.0,10.32,41.06
-0.055,0.06225,6.715,4.4,67.0,10.32,41.24
-0.068,0.057,6.713,4.399,64.0,10.32,41.4
-0.061,0.05175,6.712,4.399,64.0,10.32,41.52
-0.091,0.057,6.712,4.398,64.0,10.32,41.51
-0.108,0.0465,6.711,4.398,64.0,10.32,41.59
-0.11,0.0465,6.71,4.395,64.0,10.32,41.71
-0.111,0.08275,6.707,4.395,64.0,10.32,41.87
-0.057,0.0465,6.706,4.395,64.0,10.32,42.0
-0.114,0.03625,6.705,4.393,64.0,10.32,42.13
0.281,0.07775,6.702,4.393,64.0,10.32,42.21
-0.103,0.05175,6.7,4.393,64.0,10.32,42.26
0.007,0.0465,6.7,4.391,64.0,10.32,42.29
0.164,0.0415,6.697,4.39,64.0,10.32,42.29
0.078,0.05175,6.696,4.39,64.0,10.32,42.27
-0.074,0.0415,6.695,4.39,67.0,10.32,42.22
-0.064,0.05175,6.693,4.388,67.0,10.32,42.1
-0.062,0.05175,6.692,4.388,67.0,10.32,41.93
-0.089,0.0465,6.69,4.385,67.0,10.32,41.67
-0.1,0.031,6.688,4.385,67.0,10.32,41.48
-0.101,0.057,6.687,4.383,67.0,10.32,41.36
-0.093,0.057,6.686,4.383,67.0,10.32,41.26
-0.044,0.0465,6.685,4.383,67.0,10.32,41.15
-0.099,0.05175,6.682,4.381,67.0,10.32,41.04
0.269,0.057,6.68,4.38,67.0,10.32,40.93
-0.047,0.057,6.678,4.378,67.0,10.32,40.82
0.051,0.06225,6.677,4.378,67.0,10.32,40.74
0.216,0.0415,6.676,4.376,67.0,10.32,40.69
0.051,0.0415,6.675,4.375,67.0,10.32,40.64
-0.065,0.05175,6.672,4.374,67.0,10.32,40.62
-0.049,0.057,6.672,4.373,67.0,10.32,40.56
-0.053,0.0465,6.67,4.371,67.0,10.32,40.45
-0.075,0.03625,6.67,4.37,67.0,10.32,40.26
-0.083,0.05175,6.668,4.37,67.0,10.32,40.18
-0.084,0.057,6.667,4.368,67.0,10.32,40.14
-0.069,0.0725,6.665,4.368,67.0,10.32,40.14
-0.034,0.0725,6.663,4.368,67.0,10.32,40.12
-0.062,0.0465,6.662,4.365,67.0,10.32,40.1
0.255,0.07775,6.661,4.365,67.0,10.32,40.07
-0.03,0.031,6.66,4.365,67.0,10.32,40.05
0.076,0.06225,6.657,4.364,67.0,10.32,40.04
0.227,0.0465,6.657,4.363,67.0,10.32,40.04
0.044,0.0465,6.655,4.361,67.0,10.32,40.06
-0.057,0.05175,6.653,4.36,67.0,10.32,40.08
-0.041,0.0415,6.652,4.36,67.0,10.32,40.08
-0.051,0.0415,6.651,4.359,67.0,10.32,40.03
-0.073,0.03625,6.65,4.358,67.0,10.32,39.93
-0.08,0.0415,6.648,4.358,67.0,10.32,39.9
-0.082,0.03625,6.647,4.355,67.0,10.32,39.91
-0.031,0.03625,6.645,4.356,67.0,10.32,39.92
-0.074,0.031,6.643,4.355,67.0,10.32,39.95
0.338,0.07775,6.642,4.354,67.0,10.32,39.96
-0.134,0.057,6.64,4.353,67.0,10.32,39.96
0.002,0.0415,6.64,4.353,67.0,10.32,39.96
0.159,0.0415,6.637,4.35,67.0,10.32,39.98
0.149,0.0465,6.637,4.35,67.0,10.32,40.04
-0.05,0.05175,6.635,4.35,67.0,10.32,40.1
-0.064,0.03625,6.635,4.349,68.0,10.32,40.16
-0.062,0.06725,6.632,4.348,68.0,10.32,40.23
-0.091,0.0465,6.631,4.348,68.0,10.32,40.19
-0.108,0.06225,6.63,4.345,68.0,10.32,40.24
-0.112,0.0465,6.628,4.345,68.0,10.32,40.36
-0.059,0.0465,6.627,4.345,68.0,10.32,40.5
-0.12,0.03625,6.626,4.343,68.0,10.32,40.66
0.263,0.07775,6.625,4.343,68.0,10.32,40.78
-0.112,0.0415,6.623,4.341,68.0,10.32,40.91
-0.006,0.057,6.623,4.34,68.0,10.33,41.04
0.143,0.05175,6.62,4.34,72.0,10.32,41.16
0.055,0.05175,6.62,4.339,72.0,10.32,41.35
-0.097,0.05175,6.618,4.339,72.0,10.32,41.53
-0.087,0.05175,6.616,4.338,72.0,10.32,41.7
-0.089,0.05175,6.615,4.336,72.0,10.32,41.8
-0.117,0.0465,6.615,4.338,72.0,10.33,41.82
-0.125,0.03625,6.613,4.335,72.0,10.32,41.92
-0.072,0.03625,6.613,4.335,72.0,10.33,42.05
-0.135,0.05175,6.61,4.335,72.0,10.33,42.19
0.246,0.10875,6.608,4.335,72.0,10.33,42.31
-0.101,0.06225,6.608,4.335,72.0,10.33,42.42
0.006,0.05175,6.606,4.335,72.0,10.32,42.49
0.154,0.05175,6.605,4.335,72.0,10.33,42.57
0.041,0.03625,6.603,4.335,72.0,10.33,42.62
-0.085,0.0465,6.603,4.336,77.0,10.33,42.62
-0.065,0.057,6.601,4.338,77.0,10.33,42.52
-0.071,0.0415,6.6,4.34,77.0,10.33,42.34
-0.091,0.06725,6.598,4.34,77.0,10.33,42.05
-0.021,0.05175,6.598,4.343,77.0,10.33,41.83
-0.107,0.0465,6.596,4.345,77.0,10.33,41.66
0.293,0.0985,6.595,4.349,77.0,10.33,41.51
-0.114,0.05175,6.595,4.351,77.0,10.33,41.35
0.001,0.05175,6.593,4.354,77.0,10.32,41.21
0.175,0.0465,6.593,4.356,77.0,10.33,41.08
0.089,0.0465,6.593,4.359,77.0,10.33,40.94
-0.073,0.0465,6.59,4.363,83.0,10.33,40.83
-0.067,0.03625,6.59,4.366,83.0,10.33,40.74
-0.063,0.0415,6.59,4.368,83.0,10.33,40.63
-0.069,0.05175,6.59,4.37,83.0,10.33,40.41
-0.009,0.057,6.59,4.373,83.0,10.33,40.28
-0.089,0.0415,6.59,4.374,83.0,10.33,40.21
0.23,0.0725,6.589,4.379,83.0,10.33,40.16
-0.063,0.057,6.59,4.384,83.0,10.33,40.12
0.051,0.0465,6.59,4.39,83.0,10.33,40.07
0.193,0.057,6.59,4.399,83.0,10.33,40.03
0.001,0.0415,6.59,4.41,83.0,10.33,39.99
-0.082,0.0465,6.593,4.423,87.0,10.33,39.99
-0.064,0.03625,6.596,4.439,87.0,10.33,39.97
-0.072,0.05175,6.602,4.453,87.0,10.33,39.92
-0.091,0.0725,6.612,4.47,87.0,10.33,39.81
-0.098,0.0415,6.63,4.491,87.0,10.33,39.81
-0.051,0.05175,6.653,4.516,87.0,10.33,39.81
-0.082,0.05175,6.683,4.539,87.0,10.33,39.84
0.315,0.088,6.724,4.563,87.0,10.33,39.84
-0.131,0.0725,6.771,4.587,87.0,10.33,39.85
-0.017,0.03625,6.822,4.609,87.0,10.33,39.84
0.138,0.03625,6.876,4.631,87.0,10.33,39.82
0.174,0.03625,6.931,4.654,87.0,10.33,39.84
-0.033,0.03625,6.986,4.68,87.0,10.33,39.86
-0.058,0.05175,7.043,4.701,73.0,10.33,39.89
-0.048,0.05175,7.098,4.718,73.0,10.33,39.9
-0.073,0.031,7.146,4.737,73.0,10.33,39.81
-0.091,0.0415,7.192,4.753,73.0,10.33,39.8
-0.095,0.0415,7.232,4.768,73.0,10.33,39.87
-0.056,0.03625,7.271,4.782,73.0,10.33,39.98
-0.078,0.0415,7.309,4.795,73.0,10.33,40.1
0.262,0.0725,7.347,4.805,73.0,10.33,40.22
-0.085,0.08275,7.378,4.816,73.0,10.33,40.36
-0.02,0.057,7.407,4.825,73.0,10.33,40.49
0.119,0.05175,7.43,4.835,73.0,10.33,40.65
0.158,0.03625,7.45,4.844,73.0,10.33,40.83
-0.04,0.057,7.468,4.855,73.0,10.33,41.02
-0.068,0.0415,7.486,4.861,71.0,10.33,41.2
-0.049,0.0415,7.506,4.866,71.0,10.33,41.36
-0.072,0.057,7.523,4.871,71.0,10.33,41.39
-0.091,0.0465,7.541,4.876,71.0,10.33,41.46
-0.095,0.0465,7.556,4.878,71.0,10.33,41.6
-0.059,0.0465,7.573,4.881,71.0,10.33,41.77
-0.079,0.057,7.588,4.889,71.0,10.33,41.91
0.256,0.088,7.601,4.896,71.0,10.33,42.04
-0.072,0.1035,7.611,4.897,71.0,10.33,42.15
-0.019,0.0465,7.624,4.9,71.0,10.33,42.25
0.12,0.0415,7.634,4.9,71.0,10.33,42.36
0.156,0.0415,7.644,4.9,71.0,10.33,42.48
-0.041,0.0415,7.654,4.9,71.0,10.32,42.62
-0.066,0.057,7.66,4.897,71.0,10.33,42.73
-0.044,0.057,7.665,4.897,71.0,10.33,42.72
-0.071,0.0465,7.67,4.896,71.0,10.33,42.55
-0.087,0.0415,7.675,4.896,71.0,10.33,42.35
-0.089,0.0465,7.678,4.897,71.0,10.32,42.2
-0.047,0.057,7.682,4.901,71.0,10.33,42.06
-0.072,0.06225,7.684,4.906,71.0,10.33,41.91
0.318,0.07775,7.686,4.914,71.0,10.33,41.76
-0.098,0.0985,7.689,4.928,71.0,10.33,41.61
-0.003,0.0465,7.692,4.947,71.0,10.33,41.45
0.153,0.0415,7.697,4.968,71.0,10.33,41.32
0.191,0.05175,7.707,4.996,71.0,10.33,41.22
-0.028,0.057,7.726,5.029,71.0,10.33,41.14
-0.057,0.057,7.748,5.058,71.0,10.33,41.05
-0.032,0.057,7.781,5.094,71.0,10.33,40.94
-0.05,0.031,7.819,5.131,71.0,10.33,40.73
-0.065,0.0465,7.868,5.167,71.0,10.33,40.55
-0.071,0.0415,7.917,5.199,71.0,10.33,40.46
-0.069,0.05175,7.975,5.234,71.0,10.33,40.39
-0.015,0.0415,8.038,5.274,71.0,10.33,40.32
-0.068,0.05175,8.103,5.311,71.0,10.33,40.26
0.357,0.08275,8.165,5.353,71.0,10.33,40.18
-0.098,0.0725,8.231,5.393,71.0,10.33,40.11
0.028,0.05175,8.306,5.428,71.0,10.33,40.05
0.208,0.05175,8.377,5.453,71.0,10.33,40.03
0.164,0.0465,8.449,5.481,71.0,10.33,40.02
-0.035,0.031,8.519,5.506,71.0,10.33,40.02
-0.042,0.0415,8.587,5.529,67.0,10.33,40.01
-0.029,0.057,8.656,5.545,67.0,10.33,39.98
-0.051,0.0465,8.722,5.565,67.0,10.33,39.86
-0.067,0.05175,8.776,5.587,67.0,10.33,39.8
-0.07,0.057,8.83,5.606,67.0,10.33,39.8
-0.071,0.057,8.883,5.624,67.0,10.33,39.8
-0.054,0.06225,8.935,5.637,67.0,10.33,39.82
-0.029,0.0465,8.986,5.641,67.0,10.33,39.83
-0.047,0.05175,9.037,5.645,67.0,10.33,39.84
0.258,0.08275,9.083,5.647,67.0,10.33,39.85
-0.032,0.0465,9.112,5.643,67.0,10.33,39.9
0.072,0.06225,9.133,5.642,67.0,10.33,39.98
0.222,0.0415,9.148,5.635,67.0,10.33,40.09
0.038,0.03625,9.163,5.628,67.0,10.33,40.21
-0.069,0.0415,9.174,5.62,63.0,10.33,40.37
-0.055,0.0465,9.174,5.612,63.0,10.33,40.5
-0.062,0.0415,9.169,5.603,63.0,10.33,40.56
-0.089,0.057,9.163,5.592,63.0,10.33,40.59
-0.099,0.057,9.157,5.58,63.0,10.33,40.71
-0.103,0.0415,9.148,5.569,63.0,10.33,40.88
-0.099,0.05175,9.135,5.558,63.0,10.33,41.07
-0.049,0.0415,9.123,5.548,63.0,10.33,41.21
-0.109,0.0465,9.11,5.538,63.0,10.33,41.36
0.274,0.1035,9.097,5.531,63.0,10.33,41.49
-0.071,0.057,9.083,5.52,63.0,10.33,41.62
0.023,0.05175,9.07,5.511,63.0,10.33,41.78
0.18,0.03625,9.057,5.503,63.0,10.33,41.95
0.059,0.0415,9.042,5.495,63.0,10.33,42.12
-0.082,0.0465,9.031,5.487,65.0,10.33,42.29
-0.066,0.05175,9.018,5.48,65.0,10.33,42.41
-0.069,0.05175,9.006,5.475,65.0,10.33,42.46
-0.093,0.0415,8.994,5.468,65.0,10.33,42.44
-0.098,0.06225,8.981,5.461,65.0,10.33,42.52
-0.087,0.057,8.969,5.454,65.0,10.33,42.62
-0.038,0.08275,8.955,5.446,65.0,10.33,42.68
-0.09,0.057,8.943,5.44,65.0,10.33,42.65
0.27,0.0985,8.929,5.433,65.0,10.33,42.56
-0.041,0.0465,8.917,5.425,65.0,10.33,42.42
0.059,0.0465,8.904,5.419,65.0,10.33,42.26
0.213,0.03625,8.894,5.413,65.0,10.33,42.13
0.054,0.05175,8.884,5.408,65.0,10.33,42.02
-0.057,0.05175,8.872,5.403,72.0,10.33,41.88
-0.038,0.0465,8.861,5.395,72.0,10.33,41.73
-0.045,0.05175,8.849,5.391,72.0,10.33,41.53
-0.067,0.0415,8.839,5.387,72.0,10.33,41.26
0.002,0.03625,8.83,5.383,72.0,10.33,41.1
-0.066,0.031,8.82,5.377,72.0,10.33,40.99
0.339,0.05175,8.81,5.373,72.0,10.33,40.9
-0.14,0.06725,8.8,5.368,72.0,10.33,40.81
0.004,0.06725,8.791,5.366,72.0,10.33,40.71
0.176,0.0415,8.782,5.362,72.0,10.33,40.61
0.144,0.0415,8.774,5.36,72.0,10.33,40.49
-0.048,0.0465,8.766,5.357,72.0,10.33,40.41
-0.055,0.0465,8.759,5.356,81.0,10.33,40.32
-0.046,0.08275,8.751,5.355,81.0,10.33,40.25
-0.07,0.057,8.744,5.355,81.0,10.33,40.06
-0.009,0.057,8.737,5.353,81.0,10.33,39.95
-0.065,0.0465,8.73,5.352,81.0,10.33,39.92
0.333,0.0725,8.724,5.355,81.0,10.33,39.92
-0.158,0.0725,8.719,5.356,81.0,10.33,39.92
-0.012,0.0465,8.717,5.358,81.0,10.33,39.91
0.151,0.0415,8.717,5.366,81.0,10.33,39.89
0.156,0.06225,8.722,5.373,81.0,10.33,39.88
-0.043,0.0465,8.732,5.383,81.0,10.33,39.88
-0.053,0.0415,8.751,5.395,84.0,10.33,39.87
-0.047,0.03625,8.781,5.409,84.0,10.33,39.88
-0.076,0.0465,8.821,5.423,84.0,10.33,39.77
-0.05,0.057,8.869,5.435,84.0,10.33,39.73
-0.045,0.0465,8.925,5.446,84.0,10.33,39.74
0.103,0.0725,8.984,5.458,84.0,10.33,39.79
0.015,0.088,9.047,5.466,84.0,10.33,39.87
-0.058,0.0465,9.112,5.476,84.0,10.33,39.94
0.072,0.0415,9.173,5.483,82.0,10.33,40.03
0.146,0.0415,9.229,5.49,82.0,10.33,40.13
-0.042,0.0415,9.282,5.497,82.0,10.33,40.26
-0.082,0.0415,9.328,5.506,82.0,10.33,40.42
-0.074,0.031,9.371,5.512,82.0,10.33,40.58
-0.103,0.057,9.409,5.517,82.0,10.33,40.62
-0.067,0.05175,9.444,5.522,82.0,10.33,40.68
-0.088,0.057,9.47,5.527,82.0,10.33,40.83
0.201,0.0725,9.495,5.53,82.0,10.33,41.01
-0.123,0.088,9.515,5.531,82.0,10.33,41.18
-0.066,0.05175,9.532,5.531,82.0,10.33,41.32
0.067,0.0465,9.543,5.531,85.0,10.33,41.45
0.101,0.05175,9.553,5.531,85.0,10.33,41.58
-0.072,0.05175,9.559,5.531,85.0,10.33,41.73
-0.088,0.0465,9.561,5.529,85.0,10.33,41.9
-0.083,0.06225,9.557,5.526,85.0,10.33,42.03
-0.111,0.031,9.552,5.525,85.0,10.33,42.05
-0.035,0.057,9.547,5.521,85.0,10.33,42.09
-0.137,0.0465,9.54,5.519,85.0,10.33,42.21
0.24,0.08275,9.533,5.515,85.0,10.33,42.33
-0.137,0.0465,9.526,5.512,85.0,10.33,42.42
-0.023,0.05175,9.521,5.507,85.0,10.33,42.44
0.122,0.05175,9.519,5.502,87.0,10.33,42.36
0.037,0.05175,9.519,5.497,87.0,10.33,42.25
-0.082,0.031,9.519,5.494,87.0,10.33,42.13
-0.061,0.031,9.519,5.488,87.0,10.33,41.99
-0.074,0.05175,9.516,5.482,87.0,10.33,41.8
-0.095,0.057,9.516,5.478,87.0,10.33,41.52
-0.032,0.0415,9.514,5.473,87.0,10.33,41.34
-0.082,0.0415,9.511,5.466,87.0,10.33,41.22
0.312,0.05175,9.509,5.46,87.0,10.33,41.13
-0.172,0.08275,9.505,5.455,87.0,10.33,41.02
-0.032,0.0415,9.5,5.45,87.0,10.33,40.92
0.125,0.03625,9.495,5.445,82.0,10.33,40.81
0.133,0.03625,9.49,5.44,82.0,10.33,40.69
-0.051,0.05175,9.481,5.433,82.0,10.33,40.6
-0.061,0.057,9.471,5.43,82.0,10.33,40.52
-0.055,0.0465,9.461,5.424,82.0,10.33,40.43
-0.082,0.0415,9.451,5.42,82.0,10.33,40.19
-0.095,0.05175,9.44,5.416,82.0,10.33,40.07
-0.023,0.0465,9.426,5.41,82.0,10.33,40.03
-0.091,0.05175,9.415,5.405,82.0,10.33,40.01
0.31,0.0725,9.403,5.402,82.0,10.33,39.99
-0.17,0.057,9.39,5.398,82.0,10.33,39.96
-0.024,0.03625,9.378,5.393,82.0,10.33,39.92
0.135,0.05175,9.365,5.39,82.0,10.33,39.9
0.113,0.05175,9.354,5.386,82.0,10.33,39.89
-0.06,0.057,9.344,5.383,77.0,10.33,39.91
-0.06,0.0465,9.333,5.381,77.0,10.33,39.91
-0.06,0.031,9.322,5.38,77.0,10.33,39.89
-0.091,0.057,9.312,5.38,77.0,10.33,39.77
-0.103,0.057,9.304,5.377,77.0,10.33,39.73
-0.108,0.03625,9.293,5.377,77.0,10.33,39.74
-0.072,0.06225,9.282,5.377,77.0,10.33,39.79
-0.059,0.07775,9.275,5.375,77.0,10.33,39.85
0.127,0.0725,9.265,5.376,77.0,10.33,39.91
-0.023,0.06225,9.257,5.377,77.0,10.33,40.0
-0.062,0.031,9.251,5.377,77.0,10.33,40.1
0.068,0.0725,9.244,5.38,70.0,10.33,40.24
0.14,0.06225,9.239,5.382,70.0,10.33,40.4
-0.04,0.057,9.235,5.385,70.0,10.33,40.59
-0.078,0.0465,9.233,5.387,70.0,10.33,40.77
-0.063,0.0465,9.23,5.39,70.0,10.33,40.93
-0.095,0.0465,9.228,5.393,70.0,10.33,40.95
-0.115,0.03625,9.225,5.395,70.0,10.33,41.02
-0.042,0.057,9.223,5.398,70.0,10.33,41.18
-0.119,0.0465,9.223,5.399,70.0,10.33,41.36
0.257,0.09325,9.223,5.399,70.0,10.33,41.53
-0.162,0.06725,9.221,5.399,70.0,10.33,41.65
-0.031,0.0415,9.221,5.399,70.0,10.33,41.76
0.112,0.031,9.22,5.399,80.0,10.33,41.86
0.054,0.05175,9.22,5.397,80.0,10.33,41.98
-0.096,0.0465,9.22,5.394,80.0,10.33,42.14
-0.087,0.0415,9.218,5.393,80.0,10.33,42.27
-0.092,0.0415,9.215,5.391,80.0,10.33,42.34
-0.118,0.05175,9.213,5.39,80.0,10.33,42.31
-0.059,0.0415,9.209,5.388,80.0,10.33,42.32
-0.107,0.031,9.205,5.387,80.0,10.33,42.31
0.279,0.057,9.201,5.387,80.0,10.33,42.25
-0.188,0.08275,9.196,5.385,80.0,10.33,42.15
-0.048,0.05175,9.191,5.385,80.0,10.33,42.02
0.104,0.03625,9.184,5.385,83.0,10.33,41.87
0.1,0.0465,9.179,5.385,83.0,10.33,41.71
-0.078,0.0415,9.174,5.385,83.0,10.33,41.59
-0.077,0.03625,9.169,5.385,83.0,10.33,41.49
-0.069,0.0465,9.166,5.385,83.0,10.33,41.35
-0.097,0.03625,9.162,5.383,83.0,10.33,41.11
-0.099,0.03625,9.157,5.383,83.0,10.33,40.92
-0.023,0.057,9.153,5.382,83.0,10.33,40.82
-0.126,0.05175,9.151,5.382,83.0,10.33,40.74
0.229,0.0985,9.148,5.381,83.0,10.33,40.65
-0.084,0.0415,9.146,5.38,83.0,10.33,40.55
0.012,0.031,9.146,5.38,83.0,10.33,40.43
0.169,0.03625,9.147,5.378,80.0,10.33,40.33
0.029,0.03625,9.149,5.377,80.0,10.33,40.25
-0.083,0.057,9.152,5.375,80.0,10.33,40.23
-0.064,0.0415,9.156,5.375,80.0,10.34,40.18
-0.072,0.0465,9.162,5.372,80.0,10.33,40.08
-0.095,0.05175,9.167,5.37,80.0,10.33,39.91
-0.1,0.05175,9.172,5.366,80.0,10.33,39.86
-0.091,0.0465,9.174,5.365,80.0,10.33,39.86
-0.009,0.0465,9.178,5.362,80.0,10.33,39.87
-0.104,0.0465,9.182,5.362,80.0,10.33,39.86
0.245,0.06725,9.184,5.362,80.0,10.34,39.86
-0.062,0.06225,9.185,5.36,80.0,10.34,39.84
0.032,0.06225,9.185,5.36,80.0,10.34,39.81
0.187,0.0465,9.185,5.358,80.0,10.34,39.81
0.061,0.06225,9.186,5.357,80.0,10.34,39.83
-0.06,0.0465,9.189,5.355,71.0,10.34,39.86
-0.047,0.03625,9.19,5.353,71.0,10.34,39.88
-0.06,0.0415,9.19,5.352,71.0,10.34,39.84
-0.087,0.0415,9.19,5.35,71.0,10.34,39.74
-0.098,0.06225,9.19,5.348,71.0,10.34,39.76
-0.101,0.0465,9.19,5.346,71.0,10.35,39.84
-0.053,0.0465,9.19,5.343,71.0,10.35,39.99
-0.066,0.057,9.19,5.342,71.0,10.32,40.11
0.258,0.07775,9.191,5.338,71.0,10.33,40.23
-0.13,0.06225,9.191,5.336,71.0,10.33,40.37
-0.041,0.057,9.189,5.333,71.0,10.33,40.5
0.095,0.0465,9.188,5.33,71.0,10.33,40.68
0.122,0.03625,9.185,5.326,71.0,10.33,40.85
-0.058,0.0465,9.184,5.323,71.0,10.33,41.05
-0.078,0.031,9.179,5.321,68.0,10.33,41.23
-0.065,0.0415,9.176,5.318,68.0,10.33,41.38
-0.095,0.0465,9.172,5.315,68.0,10.33,41.4
-0.106,0.03625,9.167,5.313,68.0,10.33,41.47
-0.033,0.03625,9.16,5.31,68.0,10.33,41.61
-0.11,0.0725,9.154,5.306,68.0,10.33,41.77
0.267,0.08275,9.147,5.304,68.0,10.33,41.92
-0.153,0.05175,9.139,5.303,68.0,10.33,42.03
-0.021,0.05175,9.132,5.299,68.0,10.33,42.13
0.126,0.057,9.124,5.296,68.0,10.33,42.21
0.063,0.05175,9.115,5.293,68.0,10.33,42.34
-0.082,0.03625,9.108,5.29,79.0,10.33,42.48
-0.07,0.0465,9.1,5.286,79.0,10.33,42.61
-0.072,0.0415,9.092,5.285,79.0,10.33,42.68
-0.097,0.03625,9.085,5.281,79.0,10.33,42.58
-0.037,0.05175,9.077,5.279,79.0,10.33,42.45
-0.084,0.026,9.071,5.275,79.0,10.33,42.35
0.308,0.0465,9.063,5.274,79.0,10.33,42.21
-0.164,0.057,9.057,5.271,79.0,10.33,42.07
-0.022,0.031,9.05,5.27,79.0,10.33,41.9
0.137,0.057,9.045,5.268,79.0,10.33,41.73
0.132,0.0415,9.037,5.268,79.0,10.33,41.57
-0.055,0.057,9.032,5.268,79.0,10.33,41.44
-0.064,0.03625,9.027,5.266,83.0,10.33,41.32
-0.049,0.0465,9.022,5.266,83.0,10.33,41.19
-0.077,0.05175,9.017,5.268,83.0,10.33,40.93
-0.067,0.0725,9.012,5.268,83.0,10.33,40.72
-0.017,0.06225,9.008,5.268,83.0,10.33,40.62
-0.057,0.057,9.003,5.268,83.0,10.33,40.55
0.194,0.0415,8.998,5.268,83.0,10.33,40.46
-0.057,0.0465,8.995,5.268,83.0,10.33,40.37
0.06,0.057,8.992,5.266,83.0,10.33,40.28
0.186,0.05175,8.989,5.265,83.0,10.33,40.21
0.004,0.0465,8.988,5.265,83.0,10.33,40.14
-0.066,0.03625,8.985,5.265,80.0,10.33,40.13
-0.042,0.03625,8.984,5.263,80.0,10.33,40.1
-0.059,0.03625,8.982,5.261,80.0,10.33,39.99
-0.08,0.0415,8.979,5.259,80.0,10.33,39.86
-0.085,0.0415,8.978,5.256,80.0,10.33,39.84
-0.055,0.03625,8.975,5.254,80.0,10.33,39.83
-0.029,0.057,8.97,5.25,80.0,10.33,39.85
0.072,0.0725,8.968,5.249,80.0,10.33,39.86
0.08,0.07775,8.963,5.246,80.0,10.33,39.91
-0.041,0.05175,8.96,5.245,80.0,10.33,39.96
0.086,0.0415,8.957,5.243,80.0,10.33,40.05
0.171,0.0415,8.953,5.24,80.0,10.33,40.19
-0.01,0.06725,8.95,5.24,80.0,10.33,40.37
-0.059,0.0465,8.945,5.239,72.0,10.33,40.57
-0.04,0.03625,8.94,5.238,72.0,10.33,40.74
-0.062,0.0415,8.937,5.238,72.0,10.33,40.8
-0.079,0.057,8.933,5.236,72.0,10.33,40.88
0.0,0.0465,8.93,5.235,72.0,10.33,41.05
-0.099,0.057,8.925,5.233,72.0,10.33,41.23
0.261,0.1035,8.923,5.233,72.0,10.33,41.45
-0.092,0.0465,8.922,5.231,72.0,10.33,41.61
0.015,0.05175,8.922,5.23,72.0,10.33,41.79
0.154,0.057,8.922,5.228,72.0,10.33,41.94
0.054,0.06725,8.922,5.226,72.0,10.33,42.12
-0.065,0.19675,8.922,5.224,80.0,10.33,42.37
-0.051,0.171,8.923,5.223,80.0,10.33,42.61
-0.066,0.3575,8.924,5.221,80.0,10.33,42.8
-0.076,0.39375,8.925,5.218,80.0,10.33,42.89
-0.018,1.53325,8.927,5.218,80.0,10.33,43.05
-0.098,1.34675,8.925,5.215,80.0,10.33,43.26
0.173,0.6785,8.924,5.214,80.0,10.33,43.54
-0.105,0.1605,8.922,5.213,80.0,10.33,43.92
0.001,0.06225,8.922,5.211,80.0,10.33,44.4
0.107,0.06225,8.918,5.209,86.0,10.33,44.41
-0.068,0.13475,8.916,5.206,86.0,10.33,44.27
-0.143,0.0985,8.913,5.203,86.0,10.33,44.14
-0.125,0.1295,8.908,5.199,86.0,10.33,44.08
-0.141,0.05175,8.903,5.196,86.0,10.33,43.91
-0.063,0.07775,8.9,5.196,86.0,10.33,43.68
-0.146,0.06725,8.894,5.193,86.0,10.33,43.51
0.268,0.0725,8.888,5.192,86.0,10.33,43.46
-0.244,0.057,8.883,5.191,86.0,10.33,43.67
-0.083,0.0465,8.878,5.191,86.0,10.33,43.8
0.093,0.06725,8.873,5.188,88.0,10.33,43.86
0.055,0.05175,8.867,5.188,88.0,10.33,43.93
-0.123,0.0415,8.863,5.188,88.0,10.33,44.02
-0.113,0.05175,8.856,5.188,88.0,10.33,43.97
-0.112,0.057,8.852,5.188,88.0,10.33,43.91
-0.046,0.05175,8.846,5.191,88.0,10.33,43.64
-0.138,0.0465,8.841,5.191,88.0,10.33,43.34
0.251,0.05175,8.837,5.192,88.0,10.33,43.08
-0.222,0.06725,8.833,5.194,88.0,10.33,42.84
-0.07,0.05175,8.83,5.198,88.0,10.33,42.54
0.093,0.031,8.83,5.204,93.0,10.33,42.25
0.06,0.0415,8.829,5.213,93.0,10.33,42.01
-0.095,0.06225,8.83,5.224,93.0,10.33,41.79
-0.074,0.057,8.83,5.243,93.0,10.33,41.59
-0.074,0.0415,8.833,5.265,93.0,10.33,41.42
-0.036,0.05175,8.838,5.298,93.0,10.33,41.14
-0.045,0.0415,8.847,5.338,93.0,10.33,40.99
0.149,0.0415,8.861,5.387,93.0,10.33,40.92
-0.046,0.06725,8.881,5.445,93.0,10.33,40.89
-0.045,0.0415,8.914,5.519,93.0,10.33,40.85
0.086,0.05175,8.963,5.597,93.0,10.33,40.81
0.133,0.0465,9.03,5.678,93.0,10.33,40.76
-0.031,0.06225,9.116,5.761,93.0,10.33,40.76
-0.043,0.06225,9.221,5.843,90.0,10.33,40.75
-0.048,0.0465,9.343,5.934,90.0,10.33,40.73
-0.076,0.03625,9.47,6.04,90.0,10.33,40.64
-0.025,0.057,9.601,6.149,90.0,10.33,40.57
-0.058,0.057,9.729,6.252,90.0,10.33,40.6
0.251,0.07775,9.847,6.34,90.0,10.33,40.64
-0.133,0.07775,9.963,6.411,90.0,10.33,40.68
-0.042,0.0465,10.07,6.471,90.0,10.33,40.7
0.083,0.031,10.167,6.529,90.0,10.33,40.77
0.103,0.0465,10.256,6.586,90.0,10.33,40.91
-0.045,0.05175,10.335,6.64,90.0,10.33,41.08
-0.051,0.03625,10.406,6.697,85.0,10.33,41.31
-0.064,0.0465,10.472,6.751,85.0,10.33,41.49
-0.096,0.0465,10.529,6.813,85.0,10.33,41.55
-0.027,0.057,10.58,6.848,85.0,10.33,41.69
-0.108,0.0415,10.624,6.872,85.0,10.33,41.9
0.249,0.1035,10.67,6.886,85.0,10.33,42.1
-0.157,0.05175,10.708,6.893,85.0,10.33,42.26
-0.031,0.05175,10.743,6.893,85.0,10.33,42.39
0.088,0.031,10.771,6.89,86.0,10.33,42.52
0.038,0.057,10.791,6.883,86.0,10.33,42.64
-0.075,0.0465,10.806,6.873,86.0,10.33,42.79
-0.066,0.06225,10.815,6.866,86.0,10.33,42.93
-0.084,0.05175,10.828,6.853,86.0,10.33,43.04
-0.07,0.03625,10.832,6.841,86.0,10.33,43.06
-0.048,0.03625,10.834,6.832,86.0,10.33,43.17
0.052,0.08275,10.827,6.814,86.0,10.33,43.33
0.032,0.088,10.817,6.795,86.0,10.34,43.5
-0.058,0.03625,10.806,6.777,86.0,10.34,43.59
0.062,0.0415,10.795,6.759,86.0,10.33,43.59
0.097,0.05175,10.78,6.74,86.0,10.34,43.46
-0.043,0.06725,10.763,6.722,86.0,10.34,43.3
-0.058,0.0415,10.745,6.706,89.0,10.34,43.12
-0.058,0.0465,10.728,6.688,89.0,10.34,42.94
-0.085,0.0415,10.709,6.672,89.0,10.34,42.62
-0.079,0.057,10.692,6.657,89.0,10.33,42.35
-0.007,0.08275,10.672,6.644,89.0,10.33,42.19
-0.09,0.0985,10.655,6.632,89.0,10.33,42.04
0.206,0.06225,10.635,6.619,89.0,10.33,41.9
-0.06,0.0415,10.615,6.605,89.0,10.34,41.73
0.052,0.0465,10.595,6.589,89.0,10.34,41.57
0.166,0.0465,10.575,6.574,89.0,10.34,41.43
0.019,0.0465,10.555,6.559,89.0,10.34,41.31
-0.05,0.0465,10.538,6.545,82.0,10.34,41.23
-0.037,0.0465,10.52,6.535,82.0,10.34,41.16
-0.066,0.0415,10.503,6.522,82.0,10.34,41.01
-0.085,0.0465,10.486,6.509,82.0,10.34,40.83
-0.001,0.08275,10.468,6.498,82.0,10.34,40.8
-0.095,0.05175,10.452,6.487,82.0,10.34,40.79
0.261,0.057,10.435,6.475,82.0,10.34,40.8
-0.124,0.031,10.421,6.465,82.0,10.33,40.78
-0.004,0.06225,10.405,6.455,82.0,10.33,40.76
0.138,0.05175,10.39,6.446,82.0,10.34,40.75
0.075,0.05175,10.376,6.436,82.0,10.34,40.73
-0.057,0.03625,10.362,6.427,81.0,10.34,40.74
-0.045,0.03625,10.35,6.42,81.0,10.34,40.74
-0.065,0.0465,10.337,6.413,81.0,10.34,40.72
-0.091,0.057,10.326,6.405,81.0,10.34,40.61
-0.099,0.05175,10.314,6.398,81.0,10.34,40.58
-0.034,0.03625,10.304,6.388,81.0,10.34,40.62
-0.076,0.0415,10.291,6.38,81.0,10.34,40.66
0.281,0.07775,10.281,6.372,81.0,10.34,40.68
-0.176,0.06225,10.274,6.364,81.0,10.34,40.68
-0.031,0.0465,10.266,6.355,81.0,10.34,40.67
0.104,0.057,10.256,6.348,81.0,10.34,40.67
0.099,0.057,10.249,6.34,81.0,10.34,40.68
-0.05,0.0465,10.243,6.334,81.0,10.34,40.7
-0.055,0.0465,10.237,6.328,76.0,10.34,40.75
-0.067,0.0465,10.229,6.321,76.0,10.34,40.8
-0.095,0.0465,10.221,6.313,76.0,10.34,40.8
-0.106,0.06225,10.213,6.306,76.0,10.34,40.97
-0.026,0.03625,10.206,6.299,76.0,10.34,41.29
-0.115,0.0465,10.197,6.291,76.0,10.34,41.55
0.225,0.1035,10.189,6.284,76.0,10.34,41.76
-0.135,0.06225,10.181,6.279,76.0,10.34,41.91
-0.018,0.05175,10.173,6.271,76.0,10.34,42.06
0.104,0.05175,10.167,6.266,76.0,10.34,42.2
0.04,0.0465,10.159,6.259,76.0,10.34,42.35
-0.073,0.0465,10.152,6.253,78.0,10.34,42.54
-0.062,0.06225,10.146,6.247,78.0,10.34,42.71
-0.082,0.06725,10.139,6.243,78.0,10.34,42.83
-0.091,0.05175,10.134,6.236,78.0,10.34,42.86
-0.029,0.0465,10.126,6.231,78.0,10.34,42.97
-0.103,0.0465,10.121,6.226,78.0,10.34,43.12
0.166,0.088,10.114,6.221,78.0,10.34,43.29
-0.075,0.03625,10.109,6.216,78.0,10.34,43.42
0.032,0.0465,10.101,6.211,78.0,10.34,43.51
0.104,0.0415,10.096,6.208,78.0,10.34,43.59
-0.029,0.0415,10.091,6.203,78.0,10.34,43.67
-0.07,0.05175,10.086,6.198,87.0,10.34,43.72
-0.059,0.03625,10.081,6.193,87.0,10.34,43.65
-0.087,0.0465,10.076,6.191,87.0,10.34,43.5
-0.095,0.0465,10.074,6.186,87.0,10.34,43.31
-0.017,0.0415,10.069,6.181,87.0,10.34,43.19
-0.129,0.05175,10.064,6.176,87.0,10.34,43.06
0.208,0.08275,10.059,6.171,87.0,10.34,42.93
-0.087,0.06225,10.054,6.169,87.0,10.35,42.77
0.01,0.0465,10.049,6.164,87.0,10.35,42.6
0.131,0.057,10.044,6.161,87.0,10.35,42.45
0.002,0.0415,10.039,6.156,87.0,10.35,42.31
-0.081,0.0465,10.036,6.151,83.0,10.35,42.2
-0.062,0.0465,10.032,6.146,83.0,10.35,42.08
-0.083,0.0465,10.029,6.144,83.0,10.35,41.87
-0.082,0.0465,10.027,6.139,83.0,10.35,41.62
-0.022,0.057,10.022,6.135,83.0,10.35,41.5
-0.082,0.05175,10.017,6.131,83.0,10.35,41.43
0.167,0.07775,10.014,6.126,83.0,10.35,41.37
-0.07,0.05175,10.009,6.124,83.0,10.35,41.27
0.047,0.06225,10.004,6.119,83.0,10.35,41.19
0.139,0.0465,9.999,6.115,85.0,10.35,41.12
-0.017,0.057,9.994,6.111,85.0,10.35,41.07
-0.065,0.03625,9.992,6.108,85.0,10.35,41.03
-0.054,0.0465,9.987,6.105,85.0,10.35,41.0
-0.079,0.05175,9.984,6.101,85.0,10.35,40.89
-0.092,0.057,9.98,6.099,85.0,10.35,40.78
-0.017,0.0465,9.975,6.096,85.0,10.35,40.79
-0.084,0.0465,9.97,6.092,85.0,10.35,40.8
0.28,0.088,9.965,6.089,85.0,10.35,40.83
-0.166,0.06725,9.961,6.086,85.0,10.35,40.8
-0.022,0.057,9.957,6.084,85.0,10.35,40.79
0.117,0.05175,9.954,6.082,85.0,10.35,40.77
0.086,0.031,9.95,6.078,85.0,10.35,40.75
-0.058,0.06225,9.945,6.077,80.0,10.34,40.77
-0.053,0.0465,9.942,6.074,80.0,10.35,40.78
-0.069,0.0465,9.937,6.073,80.0,10.35,40.78
-0.089,0.05175,9.935,6.073,80.0,10.35,40.69
-0.07,0.0415,9.931,6.073,80.0,10.35,40.72
-0.018,0.0465,9.927,6.073,80.0,10.35,40.87
-0.107,0.0415,9.922,6.073,80.0,10.35,41.04
0.181,0.088,9.917,6.077,80.0,10.35,41.2
-0.075,0.057,9.912,6.081,80.0,10.35,41.47
0.028,0.057,9.912,6.081,80.0,10.35,41.49
0.117,0.0415,9.91,6.081,80.0,10.35,41.65
-0.008,0.057,9.909,6.081,80.0,10.35,41.83
-0.068,0.03625,9.909,6.081,80.0,10.35,42.02
-0.056,0.031,9.907,6.081,80.0,10.35,42.2
-0.08,0.05175,9.909,6.081,80.0,10.35,42.28
-0.088,0.05175,9.911,6.079,80.0,10.35,42.35
-0.014,0.057,9.911,6.077,80.0,10.35,42.48
-0.106,0.05175,9.914,6.074,80.0,10.35,42.65
0.212,0.07775,9.914,6.073,80.0,10.35,42.81
-0.067,0.06225,9.914,6.069,80.0,10.35,42.94
0.039,0.0465,9.916,6.067,80.0,10.35,43.04
0.127,0.06225,9.916,6.063,80.0,10.35,43.13
0.0,0.0415,9.916,6.061,80.0,10.35,43.24
-0.055,0.05175,9.915,6.058,84.0,10.35,43.37
-0.035,0.057,9.914,6.054,84.0,10.35,43.48
-0.057,0.05175,9.912,6.049,84.0,10.35,43.46
-0.047,0.05175,9.911,6.047,84.0,10.35,43.39
0.003,0.06225,9.909,6.042,84.0,10.35,43.31
-0.019,0.0465,9.905,6.038,84.0,10.35,43.23
0.178,0.07775,9.9,6.034,84.0,10.35,43.13
-0.039,0.031,9.897,6.032,84.0,10.35,43.0
0.079,0.0415,9.892,6.028,84.0,10.35,42.84
0.148,0.0415,9.89,6.023,84.0,10.35,42.69
-0.012,0.0415,9.885,6.019,84.0,10.35,42.55
-0.053,0.0465,9.88,6.017,85.0,10.35,42.44
-0.038,0.0415,9.875,6.013,85.0,10.35,42.32
-0.066,0.031,9.872,6.01,85.0,10.35,42.08
-0.066,0.06725,9.865,6.005,85.0,10.35,41.8
0.006,0.057,9.861,6.002,85.0,10.35,41.63
-0.087,0.05175,9.855,5.999,85.0,10.35,41.49
0.223,0.09325,9.85,5.996,85.0,10.35,41.37
-0.054,0.0465,9.847,5.994,85.0,10.35,41.26
0.05,0.0465,9.843,5.99,85.0,10.35,41.14
0.162,0.0415,9.838,5.987,85.0,10.35,41.05
0.008,0.03625,9.833,5.984,85.0,10.35,40.98
-0.063,0.0415,9.828,5.982,83.0,10.35,40.95
-0.047,0.05175,9.823,5.979,83.0,10.35,40.9
-0.072,0.06725,9.82,5.976,83.0,10.35,40.79
-0.092,0.0465,9.815,5.974,83.0,10.35,40.66
-0.067,0.0465,9.81,5.97,83.0,10.35,40.64
-0.037,0.03625,9.805,5.967,83.0,10.35,40.66
0.02,0.05175,9.802,5.966,83.0,10.35,40.68
0.06,0.0725,9.798,5.964,83.0,10.35,40.67
-0.065,0.0465,9.795,5.961,83.0,10.34,40.65
0.064,0.057,9.791,5.961,83.0,10.35,40.64
0.13,0.03625,9.787,5.957,83.0,10.35,40.61
-0.03,0.057,9.783,5.956,83.0,10.35,40.6
-0.057,0.05175,9.78,5.955,78.0,10.35,40.6
-0.048,0.0465,9.776,5.952,78.0,10.35,40.61
-0.074,0.05175,9.771,5.951,78.0,10.35,40.53
-0.09,0.0415,9.768,5.951,78.0,10.35,40.51
-0.029,0.0415,9.765,5.949,78.0,10.35,40.62
-0.079,0.057,9.761,5.947,78.0,10.35,40.81
0.268,0.06725,9.756,5.946,78.0,10.35,41.01
-0.178,0.0725,9.752,5.946,78.0,10.35,41.17
-0.041,0.0465,9.748,5.944,78.0,10.35,41.34
0.088,0.03625,9.746,5.942,80.0,10.35,41.51
0.066,0.031,9.742,5.941,80.0,10.35,41.7
-0.082,0.0465,9.741,5.939,80.0,10.35,41.91
-0.077,0.05175,9.737,5.937,80.0,10.35,42.11
-0.079,0.0725,9.733,5.935,80.0,10.35,42.26
-0.107,0.06725,9.731,5.932,80.0,10.35,42.32
-0.048,0.057,9.727,5.931,80.0,10.35,42.43
-0.096,0.06225,9.723,5.929,80.0,10.35,42.6
0.264,0.07775,9.718,5.926,80.0,10.35,42.79
-0.173,0.06225,9.716,5.924,80.0,10.34,42.96
-0.041,0.0415,9.713,5.922,80.0,10.34,43.09
0.089,0.05175,9.709,5.92,84.0,10.35,43.2
0.053,0.0415,9.706,5.917,84.0,10.35,43.32
-0.08,0.0415,9.703,5.915,84.0,10.35,43.47
-0.067,0.03625,9.699,5.912,84.0,10.35,43.63
-0.068,0.05175,9.694,5.909,84.0,10.35,43.72
-0.085,0.0415,9.689,5.907,84.0,10.35,43.71
0.002,0.0465,9.686,5.903,84.0,10.34,43.69
-0.107,0.06725,9.681,5.9,84.0,10.35,43.64
0.255,0.08275,9.676,5.898,84.0,10.35,43.55
-0.081,0.05175,9.673,5.897,84.0,10.34,43.41
0.027,0.0415,9.669,5.893,84.0,10.35,43.25
0.16,0.0465,9.664,5.89,84.0,10.35,43.09
0.044,0.05175,9.66,5.888,84.0,10.35,42.93
-0.057,0.057,9.656,5.885,86.0,10.35,42.81
-0.035,0.057,9.654,5.883,86.0,10.35,42.66
-0.048,0.06225,9.649,5.879,86.0,10.35,42.45
-0.069,0.0465,9.646,5.878,86.0,10.35,42.18
-0.009,0.06225,9.641,5.874,86.0,10.35,42.0
-0.053,0.0465,9.639,5.872,86.0,10.35,41.87
0.311,0.07775,9.634,5.869,86.0,10.35,41.73
-0.148,0.0725,9.63,5.865,86.0,10.35,41.59
-0.014,0.057,9.628,5.864,86.0,10.35,41.47
0.136,0.05175,9.624,5.86,86.0,10.35,41.32
0.132,0.0465,9.619,5.858,86.0,10.35,41.19
-0.042,0.057,9.617,5.855,86.0,10.35,41.05
-0.046,0.0415,9.612,5.853,81.0,10.35,40.96
-0.044,0.057,9.609,5.85,81.0,10.35,40.84
-0.069,0.0465,9.606,5.848,81.0,10.35,40.62
-0.081,0.057,9.603,5.845,81.0,10.35,40.48
0.009,0.0415,9.599,5.843,81.0,10.35,40.46
-0.104,0.0415,9.596,5.84,81.0,10.35,40.46
0.234,0.06225,9.592,5.838,81.0,10.35,40.47
-0.077,0.05175,9.588,5.834,81.0,10.35,40.45
0.019,0.0465,9.586,5.833,81.0,10.35,40.44
0.154,0.031,9.582,5.831,81.0,10.35,40.43
0.049,0.0465,9.578,5.828,81.0,10.35,40.41
-0.062,0.0465,9.574,5.826,80.0,10.35,40.41
-0.043,0.03625,9.572,5.823,80.0,10.35,40.42
-0.058,0.0465,9.568,5.82,80.0,10.35,40.46
-0.08,0.07775,9.564,5.818,80.0,10.35,40.49
-0.08,0.07775,9.562,5.815,80.0,10.35,40.67
0.004,0.057,9.557,5.812,80.0,10.35,40.91
-0.099,0.0415,9.554,5.81,80.0,10.35,41.16
0.23,0.07775,9.551,5.807,80.0,10.35,41.36
-0.057,0.057,9.547,5.806,80.0,10.35,41.56
0.042,0.057,9.543,5.802,80.0,10.35,41.75
0.149,0.057,9.539,5.801,80.0,10.35,41.94
0.028,0.0465,9.537,5.797,80.0,10.35,42.16
-0.053,0.05175,9.534,5.796,78.0,10.35,42.38
-0.035,0.06225,9.53,5.792,78.0,10.35,42.57
-0.056,0.0465,9.527,5.791,78.0,10.35,42.68
-0.065,0.0415,9.524,5.788,78.0,10.35,42.75
0.003,0.0465,9.521,5.786,78.0,10.35,42.89
-0.092,0.0415,9.517,5.783,78.0,10.35,43.06
0.239,0.07775,9.512,5.781,78.0,10.35,43.25
-0.047,0.0415,9.509,5.778,78.0,10.35,43.4
0.058,0.0465,9.505,5.776,78.0,10.35,43.53
0.15,0.06725,9.502,5.773,78.0,10.35,43.63
0.014,0.0415,9.499,5.772,78.0,10.35,43.75
-0.044,0.057,9.495,5.77,85.0,10.35,43.89
-0.025,0.06725,9.491,5.766,85.0,10.35,43.99
-0.044,0.0415,9.49,5.765,85.0,10.35,43.93
-0.027,0.05175,9.485,5.762,85.0,10.35,43.79
0.007,0.0415,9.482,5.758,85.0,10.35,43.65
0.031,0.0465,9.477,5.757,85.0,10.35,43.53
0.167,0.09325,9.475,5.755,85.0,10.35,43.39
-0.015,0.0415,9.471,5.752,85.0,10.35,43.22
0.111,0.0465,9.469,5.75,85.0,10.35,43.04
0.18,0.0465,9.465,5.747,85.0,10.35,42.86
0.002,0.05175,9.462,5.745,85.0,10.35,42.7
-0.032,0.03625,9.46,5.743,85.0,10.35,42.56
-0.015,0.0465,9.456,5.74,85.0,10.35,42.42
-0.039,0.0465,9.454,5.738,85.0,10.35,42.15
0.013,0.0465,9.45,5.738,85.0,10.35,41.88
-0.041,0.03625,9.448,5.735,85.0,10.35,41.7
0.315,0.09325,9.443,5.734,85.0,10.35,41.57
-0.139,0.088,9.44,5.733,85.0,10.35,41.45
-0.009,0.05175,9.437,5.733,85.0,10.35,41.31
0.138,0.0465,9.433,5.73,85.0,10.35,41.14
0.13,0.03625,9.43,5.728,85.0,10.35,40.97
-0.039,0.05175,9.427,5.728,85.0,10.35,40.86
-0.043,0.057,9.423,5.726,86.0,10.35,40.76
-0.042,0.0415,9.42,5.725,86.0,10.35,40.67
-0.066,0.0415,9.418,5.723,86.0,10.35,40.48
-0.047,0.06225,9.414,5.723,86.0,10.35,40.36
-0.009,0.03625,9.412,5.721,86.0,10.35,40.34
0.0,0.057,9.408,5.72,86.0,10.35,40.34
0.132,0.088,9.405,5.721,86.0,10.35,40.36
-0.043,0.0465,9.402,5.723,86.0,10.35,40.35
0.077,0.05175,9.398,5.725,86.0,10.35,40.36
0.147,0.03625,9.397,5.729,86.0,10.35,40.41
-0.017,0.03625,9.394,5.737,86.0,10.35,40.52
-0.057,0.0415,9.394,5.749,82.0,10.35,40.7
-0.045,0.05175,9.394,5.758,82.0,10.35,40.92
-0.071,0.05175,9.397,5.771,82.0,10.35,41.05
-0.067,0.057,9.403,5.783,82.0,10.35,41.21
-0.012,0.057,9.411,5.796,82.0,10.35,41.45
-0.052,0.057,9.423,5.811,82.0,10.35,41.7
0.171,0.11925,9.439,5.826,82.0,10.35,41.92
-0.053,0.057,9.46,5.84,82.0,10.35,42.09
0.059,0.05175,9.482,5.855,82.0,10.35,42.26
0.121,0.03625,9.507,5.87,84.0,10.35,42.42
-0.026,0.057,9.535,5.884,84.0,10.35,42.61
-0.067,0.057,9.562,5.898,84.0,10.35,42.81
-0.053,0.05175,9.589,5.91,84.0,10.35,42.97
-0.078,0.0415,9.615,5.921,84.0,10.35,43.05
-0.019,0.05175,9.641,5.931,84.0,10.35,43.13
-0.085,0.03625,9.666,5.938,84.0,10.35,43.26
0.291,0.07775,9.688,5.945,84.0,10.35,43.44
-0.15,0.07775,9.708,5.95,84.0,10.35,43.61
-0.011,0.0415,9.723,5.951,84.0,10.35,43.75
0.118,0.057,9.737,5.951,84.0,10.35,43.85
0.069,0.07775,9.749,5.954,84.0,10.35,43.93
-0.055,0.06725,9.758,5.951,87.0,10.35,44.03
-0.041,0.03625,9.766,5.949,87.0,10.35,44.07
-0.047,0.0415,9.771,5.946,87.0,10.35,43.97
-0.06,0.03625,9.773,5.942,87.0,10.35,43.74
0.014,0.0465,9.775,5.939,87.0,10.35,43.55
-0.095,0.057,9.775,5.935,87.0,10.35,43.38
0.254,0.06725,9.771,5.93,87.0,10.35,43.25
-0.05,0.057,9.768,5.925,87.0,10.35,43.1
0.054,0.0465,9.761,5.92,87.0,10.35,42.94
0.178,0.0465,9.754,5.915,87.0,10.35,42.77
0.025,0.05175,9.748,5.91,87.0,10.35,42.62
-0.047,0.057,9.741,5.905,87.0,10.35,42.48
-0.017,0.03625,9.732,5.902,87.0,10.35,42.35
-0.029,0.0415,9.724,5.898,87.0,10.35,42.14
-0.035,0.05175,9.715,5.895,87.0,10.35,41.85
0.05,0.03625,9.707,5.894,87.0,10.37,41.69
-0.063,0.05175,9.697,5.895,87.0,10.35,41.55
0.294,0.07775,9.687,5.9,87.0,10.35,41.43
-0.012,0.0415,9.677,5.91,87.0,10.35,41.29
0.086,0.0465,9.67,5.927,87.0,10.35,41.16
0.228,0.05175,9.662,5.951,87.0,10.35,41.05
0.087,0.06725,9.658,5.984,87.0,10.35,40.93
-0.012,0.0465,9.658,6.026,84.0,10.35,40.87
0.004,0.0465,9.665,6.075,84.0,10.37,40.8
-0.009,0.031,9.684,6.133,84.0,10.35,40.7
-0.034,0.0415,9.717,6.2,84.0,10.35,40.54
-0.043,0.06725,9.763,6.284,84.0,10.35,40.51
-0.047,0.05175,9.824,6.371,84.0,10.37,40.51
-0.049,0.05175,9.899,6.456,84.0,10.37,40.53
0.002,0.06725,9.983,6.535,84.0,10.37,40.52
-0.069,0.06225,10.075,6.608,84.0,10.37,40.51
0.285,0.10875,10.165,6.685,84.0,10.37,40.5
-0.033,0.057,10.257,6.763,84.0,10.35,40.52
0.049,0.057,10.348,6.833,84.0,10.35,40.6
0.176,0.03625,10.428,6.9,84.0,10.35,40.74
0.063,0.0415,10.505,6.963,84.0,10.37,40.9
-0.056,0.0415,10.575,7.011,66.0,10.35,41.11
-0.042,0.057,10.641,7.06,66.0,10.35,41.29
-0.058,0.05175,10.704,7.098,66.0,10.35,41.39
-0.089,0.05175,10.761,7.129,66.0,10.35,41.44
-0.103,0.03625,10.81,7.154,66.0,10.35,41.62
-0.086,0.0465,10.852,7.174,66.0,10.35,41.83
-0.079,0.03625,10.891,7.19,66.0,10.37,42.05
0.014,0.057,10.925,7.203,66.0,10.37,42.23
0.087,0.1035,10.952,7.199,66.0,10.35,42.4
-0.061,0.057,10.975,7.188,66.0,10.35,42.55
0.056,0.06725,10.994,7.175,66.0,10.37,42.7
0.103,0.0415,11.007,7.164,72.0,10.35,42.87
-0.069,0.0725,11.02,7.152,72.0,10.37,43.04
-0.104,0.0465,11.026,7.136,72.0,10.37,43.21
-0.086,0.0725,11.028,7.118,72.0,10.37,43.35
-0.113,0.0415,11.022,7.103,72.0,10.35,43.37
-0.128,0.057,11.012,7.09,72.0,10.35,43.41
-0.121,0.0415,11.002,7.067,72.0,10.35,43.52
-0.072,0.05175,10.989,7.048,72.0,10.35,43.64
-0.125,0.05175,10.974,7.03,72.0,10.35,43.71
0.225,0.0985,10.959,7.013,72.0,10.35,43.67
-0.071,0.0465,10.944,6.993,72.0,10.37,43.58
0.031,0.05175,10.927,6.973,72.0,10.37,43.44
0.149,0.0465,10.909,6.954,75.0,10.35,43.29
-0.011,0.05175,10.892,6.939,75.0,10.37,43.16
-0.093,0.05175,10.876,6.923,75.0,10.35,43.05
-0.067,0.06725,10.858,6.91,75.0,10.37,42.91
-0.08,0.05175,10.84,6.902,75.0,10.35,42.69
-0.102,0.0415,10.822,6.901,75.0,10.35,42.45
-0.102,0.06225,10.804,6.905,75.0,10.37,42.31
-0.046,0.0465,10.786,6.917,75.0,10.35,42.19
-0.118,0.057,10.77,6.937,75.0,10.35,42.09
0.254,0.06725,10.756,6.963,75.0,10.35,41.97
-0.069,0.0465,10.745,6.992,75.0,10.35,41.83
0.022,0.031,10.739,7.024,75.0,10.35,41.66
0.175,0.057,10.739,7.055,77.0,10.37,41.51
0.024,0.06225,10.748,7.086,77.0,10.37,41.38
-0.092,0.05175,10.762,7.118,77.0,10.37,41.29
-0.074,0.0465,10.785,7.149,77.0,10.37,41.19
-0.081,0.057,10.811,7.177,77.0,10.37,41.03
-0.103,0.031,10.838,7.199,77.0,10.35,40.83
-0.103,0.06725,10.866,7.215,77.0,10.33,40.73
-0.053,0.0465,10.894,7.229,77.0,10.35,40.69
-0.124,0.0465,10.921,7.246,77.0,10.35,40.68
0.222,0.05175,10.943,7.257,77.0,10.35,40.65
-0.076,0.0465,10.963,7.264,77.0,10.35,40.61
0.02,0.031,10.979,7.264,77.0,10.35,40.58
0.16,0.0465,10.992,7.262,77.0,10.37,40.56
0.0,0.0415,11.005,7.256,77.0,10.37,40.57
-0.1,0.05175,11.012,7.246,77.0,10.37,40.6
-0.08,0.0415,11.019,7.235,77.0,10.35,40.63
-0.09,0.057,11.02,7.224,77.0,10.35,40.63
-0.112,0.0725,11.02,7.213,77.0,10.35,40.58
-0.051,0.0465,11.019,7.199,77.0,10.35,40.66
-0.099,0.0465,11.016,7.185,77.0,10.35,40.82
0.267,0.06725,11.01,7.168,77.0,10.34,41.0
-0.186,0.06225,11.0,7.153,77.0,10.33,41.16
-0.049,0.08275,10.989,7.137,77.0,10.32,41.34
0.094,0.0465,10.975,7.121,81.0,10.33,41.53
0.068,0.171,10.961,7.106,81.0,10.33,41.72
-0.1,0.06225,10.946,7.091,81.0,10.33,41.96
-0.1,0.0415,10.932,7.076,81.0,10.33,42.17
-0.091,0.057,10.917,7.064,81.0,10.34,42.37
-0.117,0.0465,10.902,7.052,81.0,10.34,42.48
-0.046,0.0465,10.887,7.041,81.0,10.34,42.65
-0.132,0.05175,10.874,7.029,81.0,10.33,42.88
0.25,0.08275,10.861,7.017,81.0,10.33,43.11
-0.16,0.0465,10.847,7.007,81.0,10.33,43.32
-0.029,0.06225,10.832,6.997,81.0,10.33,43.51
0.105,0.05175,10.82,6.985,85.0,10.33,43.67
0.022,0.057,10.805,6.973,85.0,10.33,43.83
-0.105,0.06225,10.791,6.96,85.0,10.34,44.02
-0.085,0.05175,10.777,6.948,85.0,10.33,44.23
-0.087,0.0465,10.765,6.935,85.0,10.33,44.42
-0.107,0.05175,10.751,6.925,85.0,10.33,44.47
-0.026,0.0415,10.739,6.914,85.0,10.33,44.57
-0.127,0.057,10.728,6.903,85.0,10.33,44.68
0.255,0.10875,10.715,6.892,85.0,10.33,44.74
-0.111,0.05175,10.704,6.885,85.0,10.33,44.7
0.01,0.057,10.691,6.878,85.0,10.33,44.59
0.15,0.0465,10.679,6.868,85.0,10.32,44.39
0.025,0.057,10.669,6.858,85.0,10.33,44.18
-0.087,0.03625,10.657,6.848,85.0,10.33,44.01
-0.061,0.057,10.648,6.841,85.0,10.33,43.83
-0.059,0.06225,10.639,6.831,85.0,10.33,43.57
-0.081,0.0415,10.629,6.822,85.0,10.33,43.22
-0.087,0.057,10.619,6.813,85.0,10.33,43.0
-0.086,0.0415,10.611,6.805,85.0,10.33,42.84
-0.086,0.057,10.602,6.796,85.0,10.33,42.73
-0.061,0.05175,10.594,6.789,85.0,10.33,42.59
-0.041,0.05175,10.586,6.783,85.0,10.33,42.43
