ECG,EMG,foot GSR,hand GSR,HR,marker,RESP
0.071,0.207,2.471,2.628,78.0,9.65,45.4
0.045,0.228,2.471,2.628,78.0,9.63,45.14
0.057,0.186,2.471,2.628,78.0,9.63,44.86
0.067,0.207,2.471,2.628,78.0,9.63,44.53
0.084,0.207,2.471,2.628,78.0,9.63,44.26
0.151,0.249,2.471,2.628,78.0,9.63,44.06
0.074,0.207,2.471,2.628,78.0,9.63,43.93
0.132,0.29,2.471,2.628,78.0,9.65,43.8
0.362,0.58,2.471,2.628,78.0,9.63,43.62
0.162,0.207,2.471,2.628,78.0,9.63,43.47
0.245,0.207,2.471,2.628,78.0,9.63,43.35
0.417,0.228,2.471,2.628,78.0,9.63,43.25
0.321,0.207,2.471,2.628,78.0,9.65,43.15
0.071,0.249,2.471,2.628,78.0,9.63,43.04
0.063,0.228,2.471,2.628,78.0,9.63,42.99
0.051,0.207,2.47,2.628,78.0,9.63,42.92
0.036,0.186,2.471,2.628,78.0,9.65,42.84
0.029,0.207,2.47,2.628,78.0,9.65,42.8
0.059,0.186,2.469,2.628,78.0,9.63,42.8
0.102,0.373,2.469,2.628,78.0,9.63,42.86
0.315,0.622,2.469,2.628,78.0,9.63,43.0
0.113,0.539,2.469,2.628,78.0,9.63,43.23
-0.004,0.186,2.469,2.628,78.0,9.65,43.53
0.067,0.186,2.469,2.628,78.0,9.63,43.85
0.232,0.228,2.469,2.626,78.0,9.65,44.44
0.072,0.186,2.469,2.626,78.0,9.65,44.48
-0.154,0.145,2.469,2.625,103.0,9.65,44.71
-0.162,0.207,2.469,2.626,103.0,9.65,44.94
-0.156,0.186,2.469,2.625,103.0,9.65,45.06
-0.137,0.207,2.469,2.626,103.0,9.65,45.24
-0.105,0.166,2.469,2.625,103.0,9.65,45.46
-0.182,0.186,2.467,2.626,103.0,9.65,45.7
0.135,0.394,2.466,2.625,103.0,9.65,45.94
-0.114,0.394,2.466,2.625,103.0,9.65,46.12
-0.06,0.186,2.466,2.625,103.0,9.65,46.23
0.041,0.186,2.466,2.625,78.0,9.63,46.31
0.21,0.207,2.466,2.625,78.0,9.63,46.37
0.002,0.186,2.466,2.625,78.0,9.63,46.37
-0.123,0.207,2.466,2.625,78.0,9.63,46.25
-0.096,0.207,2.466,2.625,78.0,9.63,46.05
-0.073,0.186,2.466,2.625,78.0,9.63,45.76
-0.033,0.186,2.466,2.625,78.0,9.63,45.52
0.029,0.186,2.466,2.625,78.0,9.63,45.31
-0.039,0.207,2.466,2.625,78.0,9.63,45.09
0.272,0.435,2.466,2.625,78.0,9.63,44.92
0.034,0.456,2.464,2.625,78.0,9.63,44.71
0.088,0.186,2.464,2.625,78.0,9.63,44.5
0.19,0.207,2.464,2.625,78.0,9.63,44.31
0.36,0.186,2.464,2.625,78.0,9.63,44.15
0.142,0.186,2.464,2.625,78.0,9.63,44.02
-0.007,0.186,2.464,2.625,77.0,9.63,43.89
0.0,0.207,2.464,2.625,77.0,9.63,43.74
-0.001,0.207,2.464,2.625,77.0,9.63,43.46
0.017,0.186,2.464,2.624,77.0,9.63,43.25
0.07,0.166,2.464,2.625,77.0,9.63,43.16
-0.011,0.207,2.464,2.624,77.0,9.63,43.11
0.222,0.456,2.464,2.625,77.0,9.63,43.08
0.097,0.497,2.464,2.625,77.0,9.63,43.03
0.089,0.186,2.464,2.625,77.0,9.63,43.0
0.18,0.186,2.462,2.625,77.0,9.63,42.98
0.345,0.207,2.462,2.625,77.0,9.63,42.96
0.152,0.207,2.461,2.624,77.0,9.63,42.95
-0.026,0.228,2.461,2.623,76.0,9.63,42.93
-0.038,0.186,2.461,2.623,76.0,9.63,42.94
-0.055,0.207,2.461,2.623,76.0,9.63,42.92
-0.056,0.207,2.461,2.623,76.0,9.65,42.89
-0.016,0.249,2.461,2.623,76.0,9.65,42.91
-0.113,0.186,2.461,2.623,76.0,9.63,42.98
0.031,0.394,2.461,2.623,76.0,9.63,43.18
0.029,0.477,2.461,2.623,76.0,9.63,43.39
-0.066,0.186,2.461,2.623,76.0,9.63,43.64
0.006,0.207,2.46,2.623,77.0,9.63,43.89
0.163,0.207,2.459,2.623,77.0,9.65,44.18
-0.003,0.207,2.459,2.623,77.0,9.63,44.45
-0.206,0.186,2.459,2.623,77.0,9.63,44.68
-0.207,0.207,2.459,2.623,77.0,9.65,44.91
-0.202,0.186,2.459,2.623,77.0,9.65,45.02
-0.148,0.207,2.459,2.623,77.0,9.65,45.18
-0.176,0.186,2.459,2.623,77.0,9.65,45.38
-0.219,0.228,2.459,2.623,77.0,9.63,45.63
0.149,0.518,2.459,2.623,77.0,9.65,45.89
-0.181,0.269,2.456,2.623,77.0,9.65,46.08
-0.088,0.228,2.457,2.623,77.0,9.63,46.24
0.044,0.207,2.456,2.623,80.0,9.63,46.44
0.118,0.166,2.456,2.623,80.0,9.63,46.68
-0.185,0.207,2.456,2.623,80.0,9.63,46.92
-0.237,0.166,2.456,2.623,80.0,9.63,47.12
-0.234,0.186,2.456,2.623,80.0,9.63,47.23
-0.207,0.228,2.456,2.623,80.0,9.63,47.3
-0.191,0.186,2.456,2.623,80.0,9.63,47.39
-0.254,0.166,2.456,2.623,80.0,9.63,47.54
0.163,0.373,2.456,2.623,80.0,9.63,47.7
-0.247,0.352,2.456,2.623,80.0,9.65,47.82
-0.132,0.166,2.455,2.62,80.0,9.63,47.84
-0.015,0.186,2.454,2.623,83.0,9.63,47.86
0.115,0.186,2.454,2.623,83.0,9.62,47.93
-0.158,0.207,2.454,2.623,83.0,9.61,48.01
-0.249,0.186,2.454,2.621,83.0,9.61,48.07
-0.242,0.207,2.454,2.623,83.0,9.61,48.12
-0.214,0.207,2.454,2.623,83.0,9.61,48.08
-0.177,0.207,2.454,2.621,83.0,9.61,48.07
-0.245,0.207,2.454,2.623,83.0,9.65,48.08
0.119,0.414,2.454,2.62,83.0,9.68,48.12
-0.172,0.331,2.452,2.62,83.0,9.57,48.16
-0.115,0.166,2.452,2.62,83.0,9.58,48.12
-0.004,0.186,2.452,2.62,83.0,9.71,48.09
0.157,0.186,2.451,2.62,83.0,9.74,48.12
-0.087,0.207,2.451,2.62,83.0,9.94,48.18
-0.207,0.166,2.451,2.621,83.0,10.23,48.16
-0.188,0.186,2.451,2.62,83.0,9.85,48.13
-0.161,0.186,2.451,2.62,83.0,9.88,48.0
-0.098,0.186,2.451,2.62,83.0,10.32,47.89
-0.164,0.166,2.451,2.62,83.0,10.49,47.8
-0.018,0.331,2.451,2.62,83.0,10.13,47.75
0.138,0.456,2.451,2.62,83.0,9.99,47.72
-0.014,0.166,2.451,2.62,83.0,9.94,47.62
0.091,0.166,2.449,2.62,83.0,9.9,47.47
0.282,0.186,2.449,2.62,83.0,10.05,47.33
0.136,0.166,2.449,2.62,83.0,9.91,47.22
-0.047,0.166,2.449,2.62,82.0,9.74,47.04
-0.026,0.207,2.449,2.62,82.0,9.47,46.85
-0.008,0.228,2.449,2.62,82.0,9.55,46.54
0.017,0.228,2.449,2.62,82.0,9.47,46.23
0.1,0.207,2.449,2.62,82.0,9.88,45.93
0.041,0.207,2.449,2.62,82.0,9.65,45.71
0.055,0.29,2.449,2.62,82.0,9.46,45.54
0.396,0.58,2.446,2.62,82.0,9.68,45.37
0.149,0.228,2.446,2.62,82.0,9.95,45.18
0.237,0.228,2.446,2.62,82.0,9.94,44.99
0.415,0.249,2.446,2.62,82.0,9.95,44.81
0.359,0.269,2.446,2.62,82.0,9.97,44.66
0.096,0.249,2.446,2.62,82.0,9.88,44.46
0.088,0.249,2.446,2.62,82.0,9.86,44.26
0.092,0.228,2.446,2.62,82.0,9.94,43.98
0.106,0.207,2.446,2.62,82.0,9.6,43.7
0.116,0.207,2.446,2.619,82.0,9.89,43.52
0.171,0.228,2.446,2.62,82.0,10.05,43.38
0.129,0.228,2.446,2.618,82.0,10.07,43.28
0.094,0.228,2.446,2.62,82.0,9.77,43.17
0.445,0.622,2.446,2.62,82.0,9.58,43.05
0.171,0.29,2.446,2.62,76.0,9.79,42.98
0.261,0.228,2.446,2.618,76.0,9.69,42.94
0.399,0.249,2.446,2.618,76.0,9.72,42.92
0.464,0.249,2.446,2.618,76.0,9.73,42.87
0.132,0.249,2.446,2.618,76.0,9.67,42.78
0.042,0.269,2.446,2.618,76.0,9.72,42.56
0.016,0.249,2.446,2.618,76.0,9.68,42.43
-0.006,0.29,2.446,2.618,54.0,9.6,42.44
-0.015,0.249,2.444,2.618,54.0,9.55,42.62
0.019,0.249,2.444,2.618,54.0,9.57,43.06
-0.076,0.249,2.444,2.618,54.0,9.65,43.61
0.007,0.331,2.444,2.618,54.0,9.76,44.08
0.142,0.829,2.444,2.618,54.0,9.8,44.48
-0.03,0.311,2.445,2.618,54.0,9.72,44.87
0.043,0.311,2.446,2.618,54.0,9.73,45.23
0.205,0.249,2.446,2.618,54.0,9.69,45.59
0.067,0.249,2.446,2.618,54.0,9.68,45.86
-0.159,0.249,2.446,2.618,54.0,9.68,46.08
-0.164,0.29,2.446,2.618,54.0,9.68,46.06
-0.155,0.249,2.446,2.618,54.0,9.69,45.73
-0.086,0.269,2.446,2.618,54.0,9.73,45.7
-0.146,0.269,2.446,2.618,54.0,9.74,45.91
-0.169,0.269,2.446,2.615,54.0,9.73,46.13
0.192,0.539,2.446,2.618,54.0,9.74,46.28
-0.06,0.269,2.446,2.618,54.0,9.79,46.4
0.02,0.249,2.446,2.618,54.0,9.84,46.45
0.193,0.249,2.446,2.618,54.0,9.88,46.44
0.187,0.249,2.446,2.618,54.0,9.86,46.44
-0.055,0.249,2.446,2.618,54.0,9.74,46.41
-0.049,0.249,2.446,2.618,54.0,9.57,46.26
-0.024,0.228,2.446,2.618,54.0,9.41,45.96
0.019,0.228,2.446,2.618,54.0,9.39,45.62
0.059,0.249,2.445,2.619,54.0,9.47,45.32
0.008,0.228,2.445,2.618,54.0,9.9,45.06
0.417,0.539,2.444,2.618,54.0,9.89,44.86
0.007,0.435,2.444,2.618,54.0,9.65,44.63
0.151,0.186,2.444,2.618,54.0,9.63,44.35
0.271,0.207,2.444,2.618,54.0,9.5,44.08
0.407,0.186,2.444,2.618,54.0,9.6,43.88
0.114,0.207,2.444,2.618,54.0,9.99,43.7
0.014,0.186,2.444,2.618,54.0,9.94,43.54
0.007,0.186,2.445,2.618,54.0,9.82,43.4
0.005,0.186,2.444,2.618,54.0,9.77,43.22
0.057,0.186,2.444,2.619,54.0,9.83,43.18
0.023,0.186,2.444,2.618,54.0,9.83,43.2
-0.032,0.186,2.445,2.619,54.0,9.82,43.27
0.311,0.663,2.446,2.62,54.0,9.82,43.41
-0.012,0.269,2.445,2.62,54.0,9.82,43.42
0.059,0.186,2.446,2.619,54.0,9.82,43.51
0.167,0.207,2.446,2.62,54.0,9.82,43.61
0.235,0.186,2.446,2.62,54.0,9.82,43.74
-0.088,0.207,2.444,2.62,54.0,9.83,43.91
-0.166,0.207,2.446,2.62,78.0,9.82,44.14
-0.169,0.207,2.445,2.62,78.0,9.82,44.35
-0.177,0.186,2.446,2.62,78.0,9.84,44.57
-0.17,0.186,2.446,2.62,78.0,9.86,44.86
-0.153,0.207,2.444,2.62,78.0,9.86,45.23
-0.238,0.186,2.446,2.62,78.0,9.86,45.65
0.09,0.373,2.446,2.62,78.0,9.85,46.0
-0.215,0.414,2.446,2.62,78.0,9.86,46.27
-0.163,0.166,2.444,2.62,78.0,9.88,46.5
-0.071,0.186,2.444,2.62,75.0,9.88,46.78
0.075,0.186,2.446,2.62,75.0,9.88,47.11
-0.161,0.186,2.446,2.62,75.0,9.88,47.38
-0.3,0.186,2.446,2.62,75.0,9.88,47.58
-0.282,0.186,2.445,2.62,75.0,9.88,47.74
-0.254,0.186,2.445,2.62,75.0,9.88,47.83
-0.197,0.186,2.444,2.62,75.0,9.88,47.9
-0.161,0.207,2.445,2.62,75.0,9.85,47.95
-0.213,0.186,2.444,2.62,75.0,9.86,47.93
0.216,0.414,2.444,2.62,75.0,9.85,47.81
-0.183,0.435,2.444,2.62,75.0,9.85,47.68
-0.048,0.207,2.446,2.62,75.0,9.84,47.58
0.077,0.186,2.446,2.62,78.0,9.85,47.57
0.228,0.166,2.445,2.62,78.0,9.85,47.6
-0.036,0.186,2.446,2.62,78.0,9.85,47.61
-0.141,0.166,2.446,2.62,78.0,9.85,47.54
-0.125,0.166,2.446,2.62,78.0,9.86,47.45
-0.122,0.186,2.446,2.62,78.0,9.88,47.31
-0.121,0.186,2.446,2.619,78.0,9.86,47.22
-0.069,0.207,2.444,2.62,78.0,9.86,47.22
-0.083,0.186,2.444,2.62,78.0,9.86,47.29
-0.127,0.186,2.444,2.62,78.0,9.88,47.35
0.285,0.518,2.444,2.62,78.0,9.88,47.35
-0.073,0.249,2.444,2.619,78.0,9.88,47.35
0.027,0.186,2.444,2.619,78.0,9.88,47.36
0.167,0.166,2.444,2.618,78.0,9.88,47.38
0.276,0.186,2.444,2.618,78.0,9.88,47.41
-0.037,0.166,2.444,2.618,78.0,9.88,47.38
-0.101,0.166,2.444,2.618,72.0,9.88,47.37
-0.09,0.166,2.444,2.618,72.0,9.88,47.32
-0.089,0.186,2.444,2.618,72.0,9.88,47.19
-0.085,0.166,2.444,2.618,72.0,9.88,47.14
-0.062,0.207,2.444,2.618,72.0,9.86,47.16
-0.035,0.186,2.444,2.618,72.0,9.86,47.23
-0.104,0.186,2.444,2.618,72.0,9.86,47.3
0.319,0.456,2.444,2.618,72.0,9.86,47.31
-0.096,0.435,2.444,2.618,72.0,9.88,47.3
0.019,0.186,2.444,2.618,72.0,9.89,47.32
0.132,0.228,2.444,2.618,72.0,9.9,47.35
0.293,0.477,2.444,2.618,72.0,9.9,47.4
0.028,1.637,2.444,2.618,72.0,9.9,47.38
-0.092,0.249,2.444,2.618,70.0,9.9,47.36
-0.084,0.352,2.442,2.618,70.0,9.9,47.33
-0.076,0.435,2.444,2.618,70.0,9.9,47.26
-0.065,0.414,2.444,2.618,70.0,9.9,47.24
-0.052,0.394,2.441,2.618,70.0,9.9,47.27
0.009,0.373,2.442,2.618,70.0,9.9,47.26
-0.036,0.414,2.441,2.616,70.0,9.9,47.14
-0.073,0.331,2.441,2.618,70.0,9.9,46.9
0.3,0.622,2.441,2.616,70.0,9.9,46.59
0.023,0.269,2.441,2.618,70.0,9.9,46.27
0.09,0.228,2.441,2.618,70.0,9.9,46.24
0.232,0.394,2.441,2.615,70.0,9.9,46.27
0.248,0.249,2.441,2.615,70.0,9.9,46.22
-0.035,0.228,2.441,2.616,70.0,9.9,46.06
-0.062,0.228,2.441,2.616,68.0,9.9,45.84
-0.06,0.311,2.441,2.615,68.0,9.9,45.76
-0.072,0.207,2.441,2.615,68.0,9.9,45.67
-0.07,0.249,2.44,2.615,68.0,9.9,45.63
-0.022,0.249,2.439,2.615,68.0,9.9,45.6
-0.016,0.186,2.439,2.615,68.0,9.9,45.59
-0.064,0.269,2.439,2.615,68.0,9.91,45.55
0.318,0.725,2.439,2.615,68.0,9.91,45.54
-0.025,0.394,2.439,2.615,68.0,9.91,45.45
0.082,0.249,2.439,2.615,68.0,9.91,45.41
0.219,0.207,2.439,2.615,68.0,9.91,45.35
0.349,0.331,2.439,2.615,68.0,9.91,45.32
0.078,0.29,2.439,2.615,68.0,9.91,45.25
0.014,0.228,2.439,2.615,68.0,9.91,45.12
0.018,0.228,2.439,2.615,70.0,9.91,44.9
0.011,0.311,2.437,2.615,70.0,9.91,44.54
0.029,0.207,2.436,2.614,70.0,9.91,44.29
0.064,0.228,2.436,2.614,70.0,9.91,44.19
-0.013,0.352,2.436,2.615,70.0,9.91,44.11
0.355,0.456,2.436,2.613,70.0,9.91,44.04
-0.032,0.477,2.436,2.614,70.0,9.93,43.98
0.075,0.228,2.436,2.613,70.0,9.93,43.94
0.146,0.311,2.436,2.613,70.0,9.93,43.91
0.265,0.29,2.436,2.613,70.0,9.93,43.92
-0.012,0.29,2.436,2.613,70.0,9.93,43.97
-0.155,0.249,2.436,2.613,76.0,9.93,44.13
-0.165,0.269,2.436,2.613,76.0,9.93,44.5
-0.176,0.29,2.436,2.613,76.0,9.93,44.77
-0.123,0.269,2.434,2.613,76.0,9.93,45.1
-0.191,0.311,2.435,2.613,76.0,9.93,45.47
-0.228,0.477,2.434,2.613,76.0,9.93,45.87
0.115,0.559,2.434,2.613,76.0,9.93,46.25
-0.158,0.228,2.434,2.613,76.0,9.93,46.54
-0.1,0.269,2.434,2.613,76.0,9.91,46.81
0.044,1.119,2.434,2.613,80.0,9.93,47.06
0.038,1.554,2.434,2.613,80.0,9.93,47.36
-0.215,2.01,2.434,2.613,80.0,9.93,47.64
-0.226,1.657,2.434,2.613,80.0,9.93,47.85
-0.205,1.16,2.434,2.613,80.0,9.93,47.89
-0.125,2.01,2.434,2.613,80.0,9.93,47.82
-0.105,2.61,2.434,2.611,80.0,9.94,47.7
-0.127,1.802,2.434,2.611,80.0,9.91,47.57
0.292,2.051,2.431,2.61,80.0,9.94,47.41
-0.054,0.932,2.431,2.61,80.0,9.84,47.03
0.058,1.72,2.431,2.611,80.0,9.74,46.69
0.207,1.554,2.431,2.61,80.0,9.82,46.48
0.301,2.61,2.431,2.61,80.0,9.82,46.38
0.04,2.61,2.431,2.61,80.0,9.82,46.2
0.006,1.761,2.431,2.61,82.0,9.82,45.99
0.009,1.74,2.431,2.61,82.0,9.82,45.7
0.02,2.569,2.431,2.61,82.0,9.82,45.35
0.064,4.227,2.431,2.61,82.0,9.8,45.12
0.003,3.522,2.431,2.611,82.0,9.8,44.94
0.278,2.983,2.431,2.61,82.0,9.8,44.76
0.039,2.652,2.431,2.61,82.0,9.8,44.76
0.037,3.999,2.43,2.61,82.0,9.79,44.73
0.051,2.88,2.43,2.61,82.0,9.79,44.72
0.102,2.072,2.43,2.61,82.0,9.8,44.75
-0.227,3.17,2.429,2.61,82.0,9.8,44.76
-0.483,3.356,2.429,2.61,82.0,9.8,44.59
-0.532,2.134,2.429,2.61,82.0,9.8,44.37
-0.55,1.657,2.429,2.61,82.0,9.79,44.19
-0.56,1.616,2.429,2.61,82.0,9.79,44.19
-0.64,1.885,2.429,2.609,82.0,9.78,44.3
-0.516,1.326,2.429,2.609,82.0,9.78,44.39
-0.363,1.264,2.429,2.608,82.0,9.78,44.54
-0.539,0.725,2.429,2.608,82.0,9.78,44.77
-0.435,0.642,2.429,2.608,82.0,9.78,44.79
-0.233,1.285,2.429,2.61,82.0,9.78,44.91
-0.354,1.14,2.429,2.608,82.0,9.79,44.91
-0.527,1.057,2.429,2.608,82.0,9.79,44.91
-0.508,0.477,2.429,2.61,82.0,9.79,44.93
-0.466,0.601,2.429,2.608,82.0,9.79,44.8
-0.364,0.539,2.429,2.608,82.0,9.79,44.77
-0.415,0.331,2.429,2.608,82.0,9.79,44.77
-0.285,0.311,2.429,2.608,82.0,9.79,44.73
-0.076,0.559,2.429,2.608,82.0,9.79,44.76
-0.243,0.269,2.429,2.608,82.0,9.8,44.8
-0.129,0.352,2.429,2.608,82.0,9.8,44.81
0.068,0.269,2.429,2.608,84.0,9.82,44.82
-0.044,0.269,2.429,2.608,84.0,9.82,44.86
-0.224,0.249,2.429,2.608,84.0,9.82,44.89
-0.182,0.373,2.429,2.608,84.0,9.82,44.89
-0.128,0.456,2.429,2.608,84.0,9.82,44.68
-0.046,1.243,2.429,2.608,84.0,9.8,44.51
-0.09,0.249,2.429,2.608,84.0,9.8,44.73
0.285,1.844,2.429,2.606,84.0,9.8,45.06
0.044,4.89,2.429,2.606,84.0,9.8,45.18
0.078,2.963,2.429,2.608,84.0,9.8,45.11
0.228,1.098,2.429,2.606,84.0,9.8,45.2
0.374,0.518,2.429,2.608,84.0,9.8,45.49
0.091,0.767,2.427,2.606,84.0,9.8,45.47
-0.026,0.497,2.429,2.605,84.0,9.8,45.79
0.084,0.518,2.429,2.606,84.0,9.8,45.97
0.118,0.746,2.429,2.605,84.0,9.8,45.02
0.129,0.29,2.429,2.608,84.0,9.79,43.74
0.037,0.373,2.427,2.605,84.0,9.79,43.51
0.419,0.601,2.426,2.605,84.0,9.8,44.7
0.029,0.394,2.426,2.605,84.0,9.8,46.5
0.156,0.228,2.426,2.605,86.0,9.8,46.52
0.26,0.29,2.426,2.605,86.0,9.8,45.85
0.387,0.249,2.426,2.605,86.0,9.8,45.15
0.138,0.228,2.426,2.605,86.0,9.8,44.61
0.028,0.207,2.426,2.605,86.0,9.8,44.34
0.032,0.186,2.425,2.605,86.0,9.8,44.45
0.038,0.207,2.425,2.605,86.0,9.8,44.64
0.1,0.186,2.426,2.605,86.0,9.8,44.95
0.082,0.207,2.426,2.605,86.0,9.8,44.98
0.052,0.186,2.426,2.605,86.0,9.8,44.92
0.384,0.518,2.426,2.605,86.0,9.8,45.0
0.092,0.29,2.429,2.605,86.0,9.8,44.96
0.19,0.207,2.429,2.605,86.0,9.8,44.77
0.304,0.207,2.429,2.605,86.0,9.8,44.58
0.378,0.186,2.429,2.605,86.0,9.8,44.47
0.116,0.166,2.431,2.605,86.0,9.8,44.27
0.036,0.186,2.431,2.605,86.0,9.8,44.01
0.006,0.166,2.431,2.605,86.0,9.8,43.81
-0.018,0.207,2.431,2.605,86.0,9.8,43.63
0.008,0.186,2.431,2.605,86.0,9.8,43.72
-0.083,0.166,2.431,2.605,86.0,9.8,43.97
0.005,0.331,2.431,2.605,86.0,9.8,44.39
0.087,0.435,2.431,2.603,86.0,9.8,44.82
-0.036,0.166,2.431,2.603,86.0,9.8,45.18
0.029,0.145,2.431,2.605,86.0,9.8,45.54
0.156,0.124,2.431,2.603,86.0,9.8,45.96
0.023,0.145,2.434,2.604,86.0,9.8,46.43
-0.149,0.145,2.434,2.604,120.0,9.8,46.83
-0.15,0.145,2.434,2.603,120.0,9.8,47.21
-0.136,0.166,2.434,2.603,120.0,9.8,47.43
-0.082,0.207,2.434,2.603,120.0,9.8,47.69
-0.16,0.186,2.434,2.603,120.0,9.8,47.96
0.006,0.331,2.432,2.603,120.0,9.8,48.28
0.024,0.352,2.434,2.603,120.0,9.8,48.56
-0.068,0.166,2.432,2.603,120.0,9.8,48.74
0.016,0.166,2.431,2.603,85.0,9.8,48.83
0.15,0.186,2.431,2.603,85.0,9.8,48.93
-0.009,0.186,2.431,2.603,85.0,9.8,49.01
-0.144,0.207,2.431,2.603,85.0,9.8,49.03
-0.137,0.166,2.431,2.603,85.0,9.8,49.03
-0.117,0.207,2.431,2.603,85.0,9.8,48.92
-0.059,0.207,2.431,2.603,85.0,9.8,48.87
-0.131,0.186,2.431,2.603,85.0,9.8,48.82
0.088,0.394,2.431,2.603,85.0,9.8,48.82
0.05,0.331,2.431,2.603,85.0,9.8,48.81
0.067,0.186,2.431,2.603,85.0,9.8,48.74
0.231,0.207,2.431,2.603,85.0,9.8,48.69
0.05,0.186,2.431,2.603,85.0,9.8,48.67
-0.085,0.207,2.431,2.603,84.0,9.8,48.65
-0.076,0.207,2.431,2.6,84.0,9.8,48.61
-0.066,0.186,2.431,2.6,84.0,9.8,48.41
-0.001,0.186,2.431,2.601,84.0,9.8,48.24
-0.066,0.186,2.431,2.6,84.0,9.8,48.1
-0.082,0.249,2.429,2.6,84.0,9.8,48.05
0.281,0.559,2.429,2.6,84.0,9.8,48.04
0.01,0.186,2.429,2.6,84.0,9.8,48.0
0.083,0.166,2.429,2.6,84.0,9.8,47.89
0.237,0.186,2.429,2.6,84.0,9.8,47.8
0.2,0.186,2.429,2.6,84.0,9.8,47.74
-0.037,0.186,2.429,2.6,84.0,9.8,47.64
-0.037,0.166,2.429,2.6,89.0,9.8,47.5
-0.024,0.166,2.429,2.6,89.0,9.82,47.22
-0.007,0.186,2.429,2.6,89.0,9.82,46.86
0.058,0.249,2.426,2.6,89.0,9.82,46.53
0.034,0.186,2.426,2.6,89.0,9.82,46.27
0.0,0.207,2.426,2.6,89.0,9.82,46.05
0.372,0.58,2.426,2.6,89.0,9.82,45.85
0.064,0.249,2.426,2.6,89.0,9.8,45.61
0.167,0.186,2.426,2.6,89.0,9.8,45.38
0.305,0.186,2.426,2.6,89.0,9.82,45.17
0.388,0.166,2.426,2.6,89.0,9.8,44.99
0.111,0.166,2.426,2.6,89.0,9.8,44.82
0.058,0.186,2.426,2.6,89.0,9.8,44.64
0.063,0.186,2.426,2.6,89.0,9.8,44.44
0.064,0.166,2.424,2.6,89.0,9.8,44.14
0.066,0.186,2.424,2.6,89.0,9.8,43.95
0.113,0.186,2.424,2.6,89.0,9.8,43.86
0.093,0.186,2.424,2.599,89.0,9.82,43.82
0.048,0.166,2.424,2.599,89.0,9.82,43.74
0.411,0.559,2.424,2.6,89.0,9.82,43.73
0.073,0.331,2.424,2.599,75.0,9.8,43.73
0.183,0.186,2.424,2.599,75.0,9.82,43.73
0.304,0.186,2.424,2.599,75.0,9.82,43.73
0.407,0.145,2.424,2.6,75.0,9.82,43.74
0.134,0.186,2.424,2.599,75.0,9.82,43.73
0.057,0.186,2.424,2.598,75.0,9.82,43.73
0.057,0.166,2.424,2.598,75.0,9.82,43.7
0.057,0.186,2.424,2.598,75.0,9.82,43.61
0.05,0.186,2.422,2.598,75.0,9.82,43.56
0.05,0.145,2.421,2.598,75.0,9.82,43.56
0.071,0.166,2.421,2.598,75.0,9.82,43.57
-0.022,0.166,2.421,2.598,55.0,9.82,43.59
0.165,0.414,2.421,2.598,55.0,9.82,43.61
0.059,0.477,2.421,2.598,55.0,9.82,43.78
0.013,0.186,2.421,2.598,55.0,9.82,44.05
0.081,0.186,2.421,2.598,55.0,9.82,44.35
0.219,0.186,2.421,2.598,55.0,9.82,44.68
0.033,0.207,2.421,2.598,55.0,9.82,44.96
-0.154,0.166,2.42,2.598,55.0,9.82,45.2
-0.158,0.166,2.421,2.598,55.0,9.82,45.43
-0.156,0.166,2.421,2.598,55.0,9.82,45.56
-0.155,0.186,2.421,2.598,55.0,9.83,45.76
-0.096,0.186,2.42,2.598,55.0,9.82,46.01
-0.164,0.166,2.419,2.596,55.0,9.82,46.29
-0.193,0.228,2.419,2.598,55.0,9.82,46.58
0.152,0.497,2.419,2.598,55.0,9.83,46.79
-0.105,0.207,2.419,2.598,55.0,9.82,46.96
-0.044,0.166,2.419,2.596,55.0,9.82,47.15
0.098,0.166,2.419,2.595,75.0,9.83,47.4
0.085,0.186,2.419,2.598,75.0,9.83,47.66
-0.173,0.186,2.419,2.595,75.0,9.83,47.85
-0.191,0.186,2.419,2.595,75.0,9.83,47.98
-0.18,0.166,2.419,2.595,75.0,9.83,47.99
-0.171,0.207,2.419,2.595,75.0,9.83,47.99
-0.106,0.207,2.419,2.595,75.0,9.83,48.01
-0.171,0.207,2.419,2.595,75.0,9.83,48.1
-0.19,0.207,2.419,2.595,75.0,9.83,48.18
0.185,0.477,2.419,2.595,75.0,9.83,48.22
-0.089,0.228,2.419,2.595,75.0,9.83,48.18
-0.015,0.186,2.416,2.595,75.0,9.83,48.1
0.134,0.166,2.416,2.595,77.0,9.83,48.05
0.129,0.186,2.416,2.595,77.0,9.83,48.01
-0.114,0.186,2.416,2.595,77.0,9.83,47.9
-0.116,0.166,2.416,2.595,77.0,9.83,47.75
-0.089,0.186,2.416,2.595,77.0,9.83,47.5
-0.065,0.166,2.416,2.595,77.0,9.83,47.18
-0.032,0.186,2.416,2.595,77.0,9.82,46.85
0.04,0.166,2.416,2.595,77.0,9.83,46.58
-0.024,0.186,2.416,2.595,77.0,9.83,46.34
0.126,0.352,2.416,2.595,77.0,9.83,46.08
0.216,0.58,2.416,2.595,77.0,9.83,45.8
0.104,0.166,2.416,2.595,77.0,9.83,45.54
0.201,0.186,2.416,2.595,77.0,9.83,45.32
0.375,0.166,2.416,2.595,77.0,9.83,45.13
0.237,0.186,2.416,2.595,77.0,9.83,44.94
0.04,0.166,2.414,2.594,77.0,9.83,44.74
0.038,0.166,2.414,2.594,72.0,9.83,44.58
0.034,0.186,2.415,2.595,72.0,9.83,44.32
0.043,0.186,2.415,2.593,72.0,9.83,44.08
0.058,0.166,2.414,2.595,72.0,9.83,43.96
0.107,0.166,2.414,2.593,72.0,9.83,43.89
0.028,0.228,2.414,2.593,72.0,9.83,43.88
0.211,0.394,2.414,2.593,72.0,9.83,43.84
0.187,0.58,2.414,2.593,72.0,9.83,43.8
0.122,0.186,2.414,2.593,72.0,9.83,43.79
0.205,0.207,2.414,2.593,72.0,9.83,43.79
0.365,0.166,2.414,2.593,72.0,9.83,43.79
0.2,0.186,2.414,2.593,72.0,9.83,43.78
0.007,0.186,2.414,2.593,72.0,9.83,43.75
-0.001,0.186,2.414,2.593,72.0,9.83,43.74
-0.007,0.186,2.414,2.593,72.0,9.83,43.64
-0.003,0.166,2.412,2.593,72.0,9.83,43.59
-0.002,0.166,2.411,2.593,72.0,9.83,43.58
0.051,0.207,2.411,2.593,72.0,9.83,43.58
-0.004,0.166,2.411,2.593,72.0,9.83,43.6
-0.035,0.207,2.411,2.593,72.0,9.83,43.6
0.286,0.58,2.411,2.593,72.0,9.83,43.6
0.036,0.228,2.411,2.593,72.0,9.83,43.6
0.078,0.186,2.411,2.593,72.0,9.83,43.61
0.2,0.207,2.411,2.593,72.0,9.83,43.65
0.211,0.207,2.411,2.591,72.0,9.83,43.66
-0.1,0.186,2.411,2.593,69.0,9.83,43.74
-0.162,0.186,2.411,2.593,69.0,9.83,43.95
-0.168,0.166,2.411,2.593,69.0,9.83,44.16
-0.175,0.186,2.411,2.593,69.0,9.83,44.34
-0.18,0.186,2.411,2.593,69.0,9.83,44.63
-0.129,0.207,2.41,2.59,69.0,9.83,44.95
-0.205,0.166,2.411,2.591,69.0,9.83,45.28
-0.223,0.269,2.41,2.59,69.0,9.83,45.58
0.082,0.539,2.411,2.59,69.0,9.83,45.82
-0.159,0.186,2.41,2.59,69.0,9.83,46.06
-0.096,0.186,2.411,2.59,69.0,9.83,46.31
0.049,0.186,2.409,2.59,72.0,9.83,46.61
0.013,0.207,2.41,2.59,72.0,9.83,46.87
-0.242,0.186,2.411,2.59,72.0,9.83,47.08
-0.255,0.166,2.411,2.59,72.0,9.83,47.24
-0.236,0.186,2.411,2.59,72.0,9.83,47.27
-0.219,0.186,2.41,2.59,72.0,9.83,47.23
-0.144,0.186,2.41,2.59,72.0,9.83,47.18
-0.185,0.186,2.409,2.59,72.0,9.83,47.13
-0.204,0.228,2.409,2.59,72.0,9.83,47.09
0.163,0.518,2.409,2.59,72.0,9.83,47.02
-0.094,0.228,2.409,2.59,72.0,9.83,46.87
-0.013,0.186,2.409,2.59,72.0,9.83,46.72
0.135,0.186,2.409,2.59,76.0,9.83,46.6
0.156,0.186,2.409,2.59,76.0,9.83,46.51
-0.111,0.186,2.409,2.59,76.0,9.83,46.34
-0.133,0.166,2.409,2.59,76.0,9.83,46.15
-0.116,0.186,2.409,2.59,76.0,9.83,45.9
-0.106,0.186,2.407,2.59,76.0,9.83,45.65
-0.095,0.186,2.406,2.59,76.0,9.83,45.46
-0.027,0.207,2.406,2.59,76.0,9.83,45.34
-0.082,0.186,2.406,2.59,76.0,9.83,45.23
-0.102,0.228,2.406,2.59,76.0,9.83,45.14
0.237,0.601,2.406,2.59,76.0,9.84,45.02
-0.015,0.269,2.406,2.59,76.0,9.83,44.9
0.053,0.166,2.406,2.588,76.0,9.83,44.8
0.206,0.186,2.406,2.588,76.0,9.83,44.73
0.217,0.166,2.406,2.589,76.0,9.84,44.66
-0.057,0.166,2.406,2.588,76.0,9.84,44.57
-0.085,0.166,2.406,2.589,71.0,9.83,44.47
-0.074,0.145,2.406,2.589,71.0,9.84,44.32
-0.064,0.166,2.406,2.589,71.0,9.84,44.11
-0.051,0.166,2.404,2.588,71.0,9.84,44.0
0.012,0.166,2.404,2.588,71.0,9.84,43.94
-0.052,0.186,2.404,2.588,71.0,9.84,43.9
-0.075,0.207,2.404,2.588,71.0,9.84,43.88
0.24,0.601,2.404,2.588,71.0,9.84,43.83
-0.007,0.186,2.404,2.588,71.0,9.84,43.81
0.044,0.186,2.404,2.588,71.0,9.84,43.84
0.182,0.186,2.404,2.588,71.0,9.84,43.91
0.162,0.166,2.404,2.588,71.0,9.84,44.04
-0.136,0.166,2.404,2.588,71.0,9.84,44.14
-0.183,0.207,2.404,2.588,71.0,9.84,44.27
-0.187,0.166,2.404,2.588,71.0,9.84,44.37
-0.191,0.166,2.404,2.588,71.0,9.84,44.49
-0.178,0.145,2.404,2.588,71.0,9.84,44.72
-0.139,0.186,2.401,2.588,71.0,9.84,45.0
-0.22,0.166,2.401,2.588,71.0,9.84,45.3
-0.011,0.373,2.401,2.588,71.0,9.84,45.55
-0.095,0.414,2.401,2.588,71.0,9.84,45.76
-0.139,0.186,2.401,2.588,71.0,9.84,45.95
-0.051,0.186,2.401,2.588,73.0,9.84,46.17
0.108,0.186,2.401,2.588,73.0,9.84,46.44
-0.068,0.186,2.401,2.588,73.0,9.84,46.67
-0.239,0.186,2.401,2.588,73.0,9.84,46.83
-0.231,0.166,2.401,2.588,73.0,9.85,46.96
-0.215,0.186,2.401,2.588,73.0,9.84,46.94
-0.198,0.166,2.401,2.588,73.0,9.84,46.89
-0.12,0.186,2.401,2.586,73.0,9.85,46.84
-0.182,0.186,2.401,2.588,73.0,9.84,46.81
-0.183,0.228,2.399,2.588,73.0,9.84,46.79
0.157,0.539,2.401,2.586,73.0,9.85,46.72
-0.077,0.207,2.399,2.588,73.0,9.84,46.59
0.001,0.166,2.399,2.588,73.0,9.85,46.49
0.163,0.166,2.399,2.585,75.0,9.85,46.44
0.135,0.166,2.399,2.586,75.0,9.85,46.4
-0.117,0.186,2.399,2.585,75.0,9.85,46.31
-0.13,0.186,2.399,2.588,75.0,9.85,46.18
-0.112,0.166,2.399,2.586,75.0,9.85,45.97
-0.103,0.207,2.399,2.586,75.0,9.85,45.73
-0.083,0.186,2.399,2.585,75.0,9.85,45.56
-0.019,0.186,2.399,2.585,75.0,9.85,45.43
-0.092,0.186,2.399,2.588,75.0,9.85,45.32
0.032,0.311,2.399,2.585,75.0,9.85,45.23
0.133,0.539,2.399,2.585,75.0,9.85,45.1
0.006,0.186,2.397,2.585,75.0,9.85,44.98
0.097,0.166,2.396,2.585,75.0,9.85,44.9
0.268,0.186,2.396,2.585,75.0,9.85,44.83
0.135,0.166,2.396,2.585,75.0,9.85,44.75
-0.069,0.166,2.396,2.585,72.0,9.85,44.67
-0.069,0.166,2.396,2.585,72.0,9.85,44.57
-0.056,0.186,2.396,2.585,72.0,9.85,44.36
-0.041,0.186,2.396,2.585,72.0,9.85,44.16
-0.025,0.186,2.396,2.585,72.0,9.85,44.06
0.042,0.207,2.396,2.585,72.0,9.85,43.99
-0.025,0.186,2.396,2.585,72.0,9.85,43.95
0.013,0.269,2.396,2.585,72.0,9.85,43.92
0.269,0.601,2.396,2.585,72.0,9.85,43.86
0.07,0.186,2.396,2.585,72.0,9.85,43.83
0.148,0.186,2.396,2.585,72.0,9.85,43.82
0.316,0.186,2.396,2.585,72.0,9.85,43.83
0.244,0.186,2.395,2.585,72.0,9.85,43.81
-0.004,0.186,2.394,2.585,72.0,9.85,43.78
-0.019,0.186,2.394,2.585,70.0,9.85,43.77
-0.015,0.166,2.394,2.585,70.0,9.85,43.68
-0.013,0.186,2.394,2.585,70.0,9.85,43.6
-0.01,0.166,2.394,2.585,70.0,9.85,43.58
0.025,0.207,2.394,2.585,70.0,9.85,43.58
0.018,0.207,2.394,2.585,70.0,9.85,43.59
-0.035,0.166,2.394,2.585,70.0,9.85,43.61
0.34,0.539,2.394,2.585,70.0,9.85,43.61
-0.039,0.373,2.394,2.585,70.0,9.85,43.6
0.076,0.166,2.394,2.585,70.0,9.85,43.62
0.172,0.186,2.394,2.585,70.0,9.85,43.65
0.297,0.186,2.394,2.585,70.0,9.85,43.66
0.007,0.207,2.394,2.585,70.0,9.85,43.65
-0.114,0.166,2.394,2.585,68.0,9.85,43.73
-0.117,0.207,2.391,2.584,68.0,9.85,43.94
-0.122,0.186,2.392,2.584,68.0,9.85,44.08
-0.126,0.166,2.391,2.584,68.0,9.85,44.27
-0.123,0.186,2.391,2.585,68.0,9.85,44.5
-0.074,0.186,2.391,2.585,68.0,9.85,44.75
-0.15,0.207,2.391,2.584,68.0,9.85,45.02
-0.123,0.29,2.391,2.583,68.0,9.85,45.21
0.118,0.539,2.391,2.583,68.0,9.85,45.39
-0.09,0.186,2.391,2.583,68.0,9.85,45.61
-0.02,0.166,2.391,2.583,68.0,9.85,45.85
0.138,0.207,2.391,2.583,68.0,9.85,46.1
0.067,0.186,2.391,2.583,68.0,9.85,46.31
-0.184,0.186,2.391,2.583,68.0,9.85,46.48
-0.194,0.166,2.391,2.583,68.0,9.85,46.68
-0.183,0.166,2.391,2.583,68.0,9.85,46.8
-0.176,0.186,2.391,2.583,68.0,9.85,46.91
-0.118,0.166,2.391,2.583,68.0,9.85,47.04
-0.143,0.166,2.391,2.583,68.0,9.85,47.17
-0.175,0.166,2.39,2.583,68.0,9.85,47.29
0.202,0.497,2.39,2.583,68.0,9.85,47.27
-0.129,0.228,2.389,2.583,68.0,9.85,47.17
-0.021,0.166,2.389,2.583,68.0,9.85,47.06
0.11,0.166,2.389,2.583,68.0,9.85,46.98
0.208,0.166,2.389,2.583,68.0,9.85,46.91
-0.067,0.186,2.389,2.583,68.0,9.85,46.79
-0.117,0.186,2.389,2.583,75.0,9.85,46.61
-0.097,0.166,2.389,2.583,75.0,9.85,46.38
-0.082,0.186,2.389,2.583,75.0,9.85,46.1
-0.073,0.186,2.389,2.583,75.0,9.85,45.83
-0.04,0.228,2.389,2.583,75.0,9.85,45.61
-0.01,0.186,2.389,2.583,75.0,9.85,45.45
-0.077,0.186,2.387,2.583,75.0,9.85,45.32
0.308,0.435,2.387,2.583,75.0,9.85,45.17
-0.082,0.477,2.387,2.583,75.0,9.86,45.02
0.039,0.186,2.387,2.583,75.0,9.86,44.91
0.15,0.166,2.387,2.583,75.0,9.86,44.87
0.31,0.186,2.387,2.583,75.0,9.86,44.84
0.061,0.186,2.387,2.583,75.0,9.86,44.79
-0.073,0.166,2.387,2.583,70.0,9.86,44.7
-0.064,0.166,2.387,2.583,70.0,9.85,44.61
-0.056,0.207,2.387,2.583,70.0,9.86,44.39
-0.048,0.166,2.387,2.583,70.0,9.86,44.24
-0.029,0.186,2.387,2.583,70.0,9.86,44.14
0.024,0.186,2.387,2.583,70.0,9.86,44.05
-0.051,0.207,2.387,2.583,70.0,9.86,44.0
0.082,0.311,2.387,2.583,70.0,9.86,43.93
0.138,0.539,2.387,2.583,70.0,9.86,43.88
0.018,0.186,2.387,2.583,70.0,9.86,43.84
0.09,0.186,2.387,2.583,70.0,9.86,43.86
0.25,0.186,2.385,2.583,70.0,9.86,43.93
0.101,0.186,2.384,2.581,70.0,9.86,44.03
-0.134,0.145,2.384,2.581,70.0,9.86,44.17
-0.151,0.186,2.384,2.581,70.0,9.86,44.38
-0.15,0.186,2.384,2.581,70.0,9.86,44.5
-0.153,0.145,2.384,2.583,70.0,9.86,44.65
-0.128,0.166,2.384,2.581,70.0,9.86,44.91
-0.103,0.166,2.384,2.581,70.0,9.86,45.19
-0.178,0.186,2.384,2.58,70.0,9.86,45.5
0.171,0.414,2.384,2.581,70.0,9.86,45.74
-0.165,0.394,2.384,2.581,70.0,9.86,45.93
-0.072,0.186,2.384,2.58,70.0,9.86,46.1
0.03,0.186,2.384,2.58,72.0,9.86,46.32
0.193,0.186,2.384,2.581,72.0,9.86,46.54
-0.031,0.166,2.384,2.58,72.0,9.88,46.69
-0.165,0.166,2.384,2.58,72.0,9.86,46.77
-0.146,0.186,2.383,2.58,72.0,9.86,46.77
-0.123,0.166,2.384,2.58,72.0,9.86,46.62
-0.102,0.166,2.383,2.58,72.0,9.85,46.45
-0.022,0.166,2.382,2.58,72.0,9.85,46.3
-0.073,0.166,2.382,2.58,72.0,9.85,46.18
-0.091,0.207,2.382,2.58,72.0,9.86,46.07
0.259,0.601,2.382,2.58,72.0,9.85,45.88
0.009,0.186,2.382,2.58,72.0,9.86,45.66
0.083,0.186,2.382,2.58,72.0,9.86,45.46
0.238,0.166,2.382,2.58,72.0,9.86,45.33
0.259,0.166,2.382,2.58,72.0,9.85,45.21
-0.028,0.186,2.382,2.58,72.0,9.85,45.05
-0.056,0.186,2.382,2.58,74.0,9.85,44.9
-0.044,0.166,2.382,2.58,74.0,9.85,44.69
-0.037,0.186,2.382,2.58,74.0,9.85,44.43
-0.026,0.186,2.382,2.58,74.0,9.85,44.25
0.042,0.166,2.382,2.58,74.0,9.85,44.14
-0.019,0.207,2.382,2.58,74.0,9.85,44.08
-0.044,0.249,2.379,2.58,74.0,9.85,44.06
0.284,0.622,2.38,2.58,74.0,9.85,44.0
0.042,0.228,2.379,2.58,74.0,9.85,43.95
0.107,0.166,2.379,2.58,74.0,9.85,43.92
0.261,0.186,2.379,2.58,74.0,9.85,43.9
0.276,0.207,2.379,2.58,74.0,9.85,43.9
-0.017,0.166,2.379,2.58,74.0,9.86,43.88
-0.052,0.166,2.379,2.58,71.0,9.86,43.88
-0.045,0.166,2.379,2.58,71.0,9.85,43.8
-0.037,0.186,2.379,2.58,71.0,9.85,43.69
-0.04,0.207,2.379,2.58,71.0,9.85,43.65
0.002,0.228,2.379,2.58,71.0,9.86,43.65
-0.053,0.166,2.379,2.58,71.0,9.86,43.65
-0.108,0.186,2.379,2.58,71.0,9.86,43.67
0.213,0.58,2.379,2.58,71.0,9.86,43.7
-0.087,0.249,2.378,2.58,71.0,9.86,43.88
-0.02,0.186,2.378,2.58,71.0,9.86,44.14
0.096,0.186,2.377,2.58,70.0,9.86,44.45
0.167,0.166,2.377,2.58,70.0,9.86,44.77
-0.145,0.166,2.377,2.58,70.0,9.86,45.05
-0.212,0.166,2.377,2.58,70.0,9.86,45.31
-0.205,0.166,2.377,2.58,70.0,9.86,45.51
-0.203,0.166,2.377,2.578,70.0,9.86,45.65
-0.166,0.186,2.377,2.58,70.0,9.88,45.87
-0.164,0.166,2.377,2.578,70.0,9.88,46.12
-0.223,0.166,2.377,2.579,70.0,9.88,46.39
0.165,0.477,2.377,2.579,70.0,9.89,46.65
-0.222,0.352,2.377,2.58,70.0,9.89,46.8
-0.096,0.166,2.377,2.58,70.0,9.88,46.94
0.014,0.186,2.377,2.58,75.0,9.88,47.07
0.155,0.207,2.377,2.58,75.0,9.88,47.17
-0.102,0.186,2.377,2.58,75.0,9.88,47.18
-0.194,0.166,2.377,2.579,75.0,9.88,47.11
-0.177,0.166,2.377,2.579,75.0,9.88,46.99
-0.158,0.166,2.377,2.58,75.0,9.88,46.78
-0.135,0.166,2.377,2.58,75.0,9.88,46.59
-0.049,0.166,2.377,2.578,75.0,9.88,46.44
-0.109,0.166,2.377,2.578,75.0,9.88,46.32
-0.092,0.249,2.375,2.579,75.0,9.88,46.22
0.23,0.58,2.375,2.579,75.0,9.88,46.05
0.005,0.166,2.377,2.58,75.0,9.86,45.84
0.085,0.186,2.374,2.58,75.0,9.88,45.66
0.255,0.166,2.374,2.579,75.0,9.88,45.52
0.216,0.186,2.374,2.58,75.0,9.88,45.37
-0.039,0.186,2.374,2.58,75.0,9.88,45.2
-0.05,0.166,2.374,2.579,74.0,9.88,45.03
-0.038,0.186,2.374,2.578,74.0,9.88,44.81
-0.029,0.186,2.374,2.58,74.0,9.88,44.55
-0.017,0.186,2.374,2.578,74.0,9.88,44.38
0.05,0.186,2.374,2.579,74.0,9.88,44.28
-0.007,0.166,2.374,2.578,74.0,9.88,44.21
-0.029,0.186,2.374,2.578,74.0,9.88,44.16
0.305,0.642,2.374,2.578,74.0,9.88,44.1
0.065,0.207,2.374,2.578,74.0,9.88,44.05
0.136,0.166,2.374,2.578,74.0,9.88,44.02
0.294,0.166,2.374,2.578,74.0,9.88,44.01
0.328,0.186,2.372,2.578,74.0,9.88,44.0
0.038,0.166,2.372,2.578,74.0,9.88,43.95
0.001,0.186,2.373,2.578,74.0,9.88,43.88
0.01,0.186,2.372,2.578,70.0,9.79,43.78
0.016,0.166,2.372,2.578,70.0,9.82,43.66
0.024,0.186,2.372,2.578,70.0,9.96,43.61
0.074,0.186,2.372,2.578,70.0,9.89,43.61
0.044,0.166,2.372,2.578,70.0,9.73,43.61
-0.015,0.186,2.372,2.578,70.0,9.83,43.62
0.323,0.58,2.372,2.578,70.0,9.71,43.62
-0.028,0.29,2.372,2.578,70.0,9.68,43.61
0.054,0.186,2.372,2.578,70.0,10.19,43.68
0.164,0.166,2.372,2.578,70.0,10.43,43.94
0.269,0.207,2.372,2.578,70.0,10.45,44.24
-0.043,0.186,2.372,2.578,70.0,10.28,44.52
-0.144,0.166,2.37,2.578,70.0,10.34,44.83
-0.145,0.186,2.372,2.578,70.0,10.49,45.07
-0.151,0.186,2.372,2.578,70.0,10.73,45.22
-0.149,0.166,2.372,2.578,70.0,10.71,45.46
-0.107,0.186,2.372,2.578,70.0,10.62,45.75
-0.198,0.186,2.372,2.578,70.0,10.6,46.03
-0.106,0.29,2.37,2.578,70.0,10.66,46.33
0.024,0.435,2.37,2.578,70.0,10.71,46.52
-0.134,0.166,2.369,2.578,70.0,10.78,46.69
-0.055,0.166,2.369,2.578,70.0,10.73,46.86
0.109,0.186,2.37,2.578,74.0,10.65,47.08
-0.006,0.186,2.369,2.578,74.0,10.61,47.26
-0.218,0.186,2.369,2.578,74.0,10.73,47.34
-0.215,0.186,2.369,2.578,74.0,10.9,47.34
-0.19,0.186,2.369,2.578,74.0,10.84,47.18
-0.171,0.166,2.369,2.578,74.0,10.67,46.99
-0.09,0.166,2.369,2.578,74.0,10.51,46.85
-0.119,0.166,2.369,2.578,74.0,10.38,46.74
-0.141,0.207,2.369,2.578,74.0,10.37,46.63
0.226,0.539,2.369,2.578,74.0,10.37,46.44
-0.052,0.249,2.369,2.578,74.0,10.3,46.2
0.032,0.166,2.369,2.578,74.0,10.34,45.95
0.179,0.186,2.369,2.578,74.0,10.51,45.74
0.251,0.166,2.369,2.578,74.0,10.6,45.57
-0.045,0.186,2.369,2.578,74.0,10.63,45.38
-0.098,0.207,2.369,2.578,75.0,10.7,45.21
-0.092,0.166,2.369,2.578,75.0,10.66,45.03
-0.091,0.166,2.368,2.578,75.0,10.74,44.78
-0.079,0.186,2.368,2.578,75.0,10.51,44.61
-0.016,0.186,2.367,2.578,75.0,10.43,44.5
-0.09,0.186,2.367,2.578,75.0,10.66,44.42
-0.043,0.269,2.367,2.578,75.0,10.72,44.36
0.2,0.622,2.367,2.578,75.0,10.46,44.29
0.005,0.207,2.367,2.578,75.0,10.17,44.22
0.086,0.207,2.367,2.578,75.0,10.13,44.17
0.261,0.207,2.367,2.578,75.0,10.12,44.12
0.197,0.207,2.367,2.578,75.0,10.11,44.08
-0.053,0.186,2.367,2.578,72.0,10.06,44.02
-0.066,0.207,2.367,2.578,72.0,10.0,43.95
-0.058,0.207,2.367,2.578,72.0,9.96,43.84
-0.052,0.186,2.367,2.578,72.0,9.96,43.69
-0.045,0.207,2.367,2.578,72.0,9.95,43.66
0.011,0.207,2.367,2.578,72.0,9.95,43.64
-0.073,0.186,2.367,2.575,72.0,9.96,43.65
-0.102,0.207,2.367,2.578,72.0,10.02,43.66
0.191,0.559,2.367,2.578,72.0,10.11,43.65
-0.065,0.207,2.364,2.578,72.0,10.1,43.68
-0.019,0.207,2.365,2.578,72.0,10.11,43.86
0.123,0.186,2.364,2.578,71.0,10.12,44.14
0.1,0.228,2.364,2.578,71.0,10.12,44.44
-0.198,0.186,2.364,2.578,71.0,10.13,44.73
-0.231,0.207,2.364,2.578,71.0,10.13,45.03
-0.222,0.186,2.364,2.578,71.0,10.13,45.23
-0.219,0.207,2.364,2.578,71.0,10.15,45.42
-0.176,0.207,2.364,2.578,71.0,10.21,45.66
-0.189,0.207,2.364,2.578,71.0,10.29,45.94
-0.242,0.207,2.364,2.578,71.0,10.3,46.24
0.136,0.456,2.364,2.578,71.0,10.35,46.48
-0.233,0.29,2.364,2.578,71.0,10.4,46.65
-0.118,0.207,2.364,2.578,71.0,10.41,46.83
0.004,0.186,2.364,2.578,75.0,10.41,47.05
0.128,0.186,2.364,2.578,75.0,10.44,47.3
-0.148,0.186,2.364,2.578,75.0,10.44,47.48
-0.218,0.207,2.364,2.578,75.0,10.48,47.55
-0.196,0.186,2.364,2.578,75.0,10.54,47.51
-0.179,0.186,2.364,2.578,75.0,10.62,47.34
-0.151,0.207,2.364,2.578,75.0,10.63,47.2
-0.078,0.228,2.364,2.578,75.0,10.71,47.06
-0.141,0.186,2.364,2.578,75.0,10.79,46.97
-0.027,0.311,2.362,2.578,75.0,10.94,46.89
0.14,0.559,2.362,2.578,75.0,11.05,46.72
-0.009,0.207,2.362,2.578,75.0,11.01,46.5
0.084,0.207,2.362,2.578,75.0,10.59,46.34
0.267,0.186,2.362,2.578,75.0,10.49,46.2
0.16,0.207,2.362,2.578,75.0,10.63,46.06
-0.056,0.186,2.362,2.578,75.0,10.52,45.88
-0.05,0.186,2.362,2.578,74.0,10.51,45.68
-0.034,0.186,2.362,2.578,74.0,10.65,45.41
-0.022,0.207,2.362,2.578,74.0,10.65,45.15
0.049,0.207,2.362,2.578,74.0,10.76,44.99
0.059,0.186,2.362,2.576,74.0,10.77,44.84
0.0,0.207,2.362,2.578,74.0,10.74,44.75
-0.017,0.269,2.362,2.578,74.0,10.76,44.66
0.329,0.642,2.36,2.578,74.0,10.87,44.57
0.082,0.249,2.362,2.576,74.0,10.91,44.45
0.158,0.207,2.362,2.578,74.0,10.91,44.44
0.318,0.207,2.362,2.576,74.0,10.83,44.4
0.351,0.228,2.36,2.578,74.0,10.79,44.33
0.055,0.207,2.362,2.578,74.0,10.71,44.24
0.018,0.186,2.36,2.578,74.0,10.7,44.14
0.018,0.207,2.362,2.578,74.0,10.67,44.0
0.008,0.207,2.362,2.578,74.0,10.77,43.82
-0.002,0.186,2.36,2.578,74.0,10.7,43.75
0.03,0.207,2.359,2.578,70.0,10.65,43.76
-0.026,0.207,2.359,2.575,70.0,10.71,43.84
-0.084,0.207,2.359,2.575,70.0,10.78,44.0
0.257,0.58,2.359,2.575,70.0,10.61,44.22
-0.067,0.311,2.359,2.578,70.0,10.33,44.51
0.009,0.456,2.359,2.576,70.0,10.34,44.84
0.134,1.761,2.359,2.576,70.0,10.38,45.18
0.226,7.79,2.359,2.575,70.0,10.54,45.48
-0.113,9.634,2.359,2.575,70.0,13.6,45.75
-0.153,10.09,2.359,2.575,70.0,14.28,46.03
-0.137,5.325,2.359,2.575,70.0,17.86,46.26
-0.117,4.952,2.359,2.575,70.0,20.1,46.5
-0.046,6.526,2.359,2.575,70.0,21.43,46.83
-0.107,3.916,2.359,2.575,70.0,16.37,47.3
-0.257,16.45,2.359,2.576,70.0,10.55,47.32
0.067,20.967,2.359,2.575,70.0,10.01,47.43
-0.249,8.66,2.359,2.575,70.0,9.93,47.39
-0.179,8.039,2.359,2.575,70.0,9.82,47.2
-0.024,9.675,2.358,2.575,77.0,9.86,46.69
-0.002,5.428,2.359,2.575,77.0,9.93,46.85
-0.343,16.637,2.359,2.575,77.0,9.82,47.49
-0.345,11.975,2.359,2.575,77.0,9.82,48.07
-0.336,24.365,2.359,2.575,77.0,9.79,48.21
-0.298,25.152,2.359,2.575,77.0,9.86,48.46
-0.251,22.334,2.359,2.575,77.0,9.76,49.33
-0.311,9.178,2.359,2.575,77.0,9.68,50.1
0.166,19.848,2.358,2.575,77.0,9.85,50.75
-0.295,14.793,2.358,2.575,77.0,9.67,51.44
-0.127,10.401,2.357,2.575,77.0,9.77,52.36
-0.016,11.312,2.357,2.575,82.0,9.71,52.72
0.148,12.203,2.357,2.575,82.0,9.73,52.63
-0.167,13.322,2.357,2.574,82.0,9.73,52.49
-0.241,5.739,2.357,2.575,82.0,9.74,52.69
-0.204,9.51,2.357,2.575,82.0,9.74,52.89
-0.156,11.892,2.357,2.573,82.0,9.74,52.9
-0.117,4.247,2.357,2.575,82.0,9.73,52.9
-0.169,5.718,2.357,2.573,82.0,9.76,52.98
0.334,5.718,2.355,2.575,82.0,9.76,53.0
-0.152,0.787,2.354,2.575,82.0,9.76,52.84
0.012,1.823,2.354,2.575,82.0,9.76,52.39
0.201,6.713,2.355,2.575,82.0,9.76,52.02
0.347,2.756,2.355,2.575,82.0,9.76,52.53
0.031,2.113,2.358,2.575,82.0,9.76,53.24
-0.042,1.015,2.359,2.575,84.0,9.76,54.1
-0.001,4.62,2.359,2.575,84.0,9.74,55.19
0.048,3.17,2.362,2.575,84.0,9.74,55.35
-0.012,0.601,2.362,2.575,84.0,9.72,55.36
-0.018,0.849,2.362,2.575,84.0,9.71,55.25
0.372,1.264,2.36,2.578,84.0,9.69,55.03
-0.069,2.03,2.359,2.578,84.0,9.68,55.29
0.033,1.305,2.359,2.578,84.0,9.69,55.86
0.255,0.912,2.36,2.578,84.0,9.69,56.7
0.441,0.539,2.363,2.579,84.0,9.71,57.69
0.15,0.414,2.365,2.579,84.0,9.72,58.79
0.035,1.14,2.368,2.581,84.0,9.74,59.65
-0.014,2.445,2.374,2.58,84.0,9.74,59.51
0.033,2.901,2.38,2.583,86.0,9.74,59.09
-0.027,2.714,2.384,2.583,86.0,9.73,58.73
-0.01,2.424,2.385,2.583,86.0,9.73,58.18
0.456,1.388,2.39,2.583,86.0,9.73,57.55
0.095,3.688,2.395,2.583,86.0,9.73,57.04
0.179,2.735,2.397,2.585,86.0,9.73,56.9
0.379,4.227,2.402,2.585,86.0,9.73,56.64
0.389,4.682,2.41,2.585,86.0,9.73,56.04
0.099,5.47,2.415,2.584,86.0,9.74,55.61
0.1,6.941,2.422,2.585,86.0,9.74,55.7
0.103,4.019,2.428,2.586,86.0,9.74,55.75
0.169,4.703,2.437,2.588,86.0,9.74,55.6
0.071,5.262,2.442,2.588,86.0,9.74,55.48
0.107,2.196,2.447,2.589,86.0,9.76,55.39
0.446,1.036,2.452,2.59,86.0,9.76,55.47
0.123,0.622,2.457,2.59,85.0,9.74,55.68
0.199,3.584,2.461,2.59,85.0,9.74,55.66
0.379,1.409,2.465,2.59,85.0,9.74,55.45
0.339,8.515,2.466,2.589,85.0,9.76,55.35
0.058,15.249,2.469,2.589,85.0,9.76,55.49
0.009,2.631,2.472,2.59,85.0,9.76,55.78
-0.011,3.17,2.479,2.59,63.0,9.74,56.27
0.03,1.865,2.489,2.594,63.0,9.74,56.73
-0.025,3.315,2.493,2.593,63.0,9.76,57.07
0.124,2.714,2.497,2.593,63.0,9.76,57.38
0.094,3.936,2.502,2.593,63.0,9.76,57.75
0.004,2.238,2.506,2.593,63.0,9.76,57.7
0.106,4.827,2.508,2.59,63.0,9.74,57.47
0.26,1.678,2.511,2.59,63.0,9.76,57.32
0.072,2.258,2.511,2.589,63.0,9.76,57.28
-0.105,1.554,2.512,2.588,63.0,9.76,57.22
-0.097,2.673,2.513,2.589,63.0,9.76,56.97
-0.083,2.113,2.513,2.586,63.0,9.76,56.65
-0.059,1.637,2.514,2.587,63.0,9.76,56.26
-0.121,1.927,2.516,2.594,63.0,9.76,55.83
0.219,2.155,2.516,2.598,63.0,9.76,55.31
-0.078,1.637,2.514,2.598,63.0,9.76,54.91
-0.073,1.657,2.513,2.598,63.0,9.76,54.49
0.009,1.927,2.513,2.599,85.0,9.76,54.07
0.143,9.406,2.513,2.6,85.0,9.76,53.75
-0.112,5.366,2.513,2.6,85.0,9.76,53.41
-0.271,2.921,2.513,2.599,85.0,9.76,53.04
-0.282,0.953,2.512,2.598,85.0,9.76,52.67
-0.245,1.409,2.511,2.598,85.0,9.76,52.17
-0.254,2.093,2.511,2.598,85.0,9.76,51.45
-0.322,4.04,2.509,2.598,85.0,9.76,50.71
0.104,18.087,2.508,2.598,85.0,9.76,49.91
-0.334,3.936,2.508,2.598,85.0,9.76,49.54
-0.187,0.29,2.506,2.598,85.0,9.76,49.07
-0.07,1.844,2.506,2.598,85.0,9.76,48.6
0.049,5.552,2.506,2.598,85.0,9.76,48.24
-0.194,2.838,2.507,2.598,85.0,9.76,47.87
-0.255,1.512,2.508,2.598,85.0,9.76,47.56
-0.238,1.844,2.508,2.598,85.0,9.76,47.2
-0.193,2.756,2.506,2.6,85.0,9.76,46.72
-0.218,7.873,2.506,2.6,85.0,9.76,46.33
-0.264,5.739,2.504,2.6,85.0,9.76,46.09
0.128,1.72,2.503,2.6,85.0,9.76,45.92
-0.215,2.921,2.502,2.6,85.0,9.76,45.77
-0.093,2.155,2.501,2.6,85.0,9.76,45.56
0.032,3.149,2.501,2.6,85.0,9.76,45.44
0.126,1.906,2.498,2.6,85.0,9.76,45.43
-0.133,1.595,2.498,2.6,85.0,9.76,45.42
-0.173,1.678,2.496,2.599,85.0,9.76,45.43
-0.165,0.932,2.496,2.6,85.0,9.76,45.33
-0.108,2.921,2.494,2.6,85.0,9.76,45.13
-0.162,3.377,2.493,2.6,85.0,9.76,45.01
-0.196,2.3,2.493,2.6,85.0,9.76,44.99
0.159,1.989,2.491,2.601,85.0,9.76,45.0
-0.128,1.74,2.491,2.603,85.0,9.76,44.99
-0.046,0.912,2.491,2.603,85.0,9.76,44.95
0.079,1.492,2.491,2.603,85.0,9.76,44.94
0.118,1.802,2.488,2.604,85.0,9.76,45.03
-0.153,3.191,2.488,2.605,85.0,9.76,45.2
-0.186,2.01,2.488,2.605,85.0,9.76,45.43
-0.185,1.388,2.487,2.605,85.0,9.76,45.57
-0.123,0.477,2.486,2.608,85.0,9.76,45.67
-0.201,1.678,2.486,2.608,85.0,9.76,45.87
-0.04,1.699,2.486,2.608,85.0,9.76,46.15
0.119,1.471,2.483,2.608,85.0,9.76,46.47
-0.144,1.616,2.483,2.608,85.0,9.76,46.72
-0.066,2.548,2.483,2.608,86.0,9.76,46.89
0.075,1.906,2.481,2.608,86.0,9.76,47.38
0.021,1.347,2.481,2.609,86.0,9.76,47.42
-0.207,1.181,2.481,2.61,86.0,9.76,47.66
-0.209,1.285,2.481,2.61,86.0,9.76,47.92
-0.184,1.16,2.481,2.61,86.0,9.76,48.05
-0.154,1.202,2.48,2.61,86.0,9.76,48.12
-0.225,1.948,2.479,2.61,86.0,9.76,48.24
0.178,1.637,2.479,2.61,86.0,9.76,48.42
-0.199,0.642,2.479,2.61,86.0,9.76,48.63
-0.105,0.373,2.479,2.61,86.0,9.76,48.74
0.002,2.113,2.476,2.61,87.0,9.76,48.75
0.126,1.222,2.476,2.611,87.0,9.76,48.75
-0.1,1.74,2.476,2.61,87.0,9.76,48.75
-0.188,1.202,2.476,2.613,87.0,9.76,48.73
-0.176,1.927,2.476,2.611,87.0,9.76,48.64
-0.123,1.285,2.474,2.61,87.0,9.76,48.42
-0.145,1.782,2.474,2.61,87.0,9.76,48.25
-0.187,1.367,2.474,2.611,87.0,9.76,48.11
0.24,1.761,2.474,2.611,87.0,9.76,48.0
-0.14,0.414,2.474,2.613,87.0,9.76,47.86
-0.013,0.663,2.471,2.613,87.0,9.76,47.64
0.116,1.823,2.471,2.613,87.0,9.77,47.43
0.196,2.362,2.471,2.613,87.0,9.77,47.26
-0.066,1.471,2.471,2.613,87.0,9.76,47.08
-0.097,1.367,2.471,2.613,86.0,9.77,46.87
-0.081,1.678,2.469,2.613,86.0,9.76,46.61
-0.038,1.637,2.469,2.613,86.0,9.76,46.21
-0.05,2.3,2.469,2.613,86.0,9.76,45.9
-0.095,1.057,2.469,2.613,86.0,9.76,45.67
0.324,1.305,2.469,2.613,86.0,9.76,45.52
-0.076,2.486,2.469,2.613,86.0,9.76,45.39
0.063,2.258,2.469,2.613,86.0,9.76,45.23
0.182,4.206,2.466,2.613,86.0,9.76,45.12
0.287,1.699,2.466,2.613,86.0,9.76,45.08
0.021,3.066,2.466,2.613,86.0,9.77,45.05
-0.04,4.04,2.466,2.613,84.0,9.76,44.98
-0.035,4.268,2.464,2.613,84.0,9.77,44.86
-0.047,0.974,2.464,2.613,84.0,9.76,44.65
0.01,2.838,2.464,2.611,84.0,9.76,44.56
-0.058,2.693,2.464,2.613,84.0,9.76,44.5
-0.087,2.341,2.462,2.611,84.0,9.76,44.45
0.245,1.678,2.461,2.611,84.0,9.76,44.33
-0.008,1.305,2.461,2.613,84.0,9.77,43.94
0.065,2.631,2.461,2.613,84.0,9.78,43.37
0.186,2.175,2.461,2.613,84.0,9.78,42.85
0.156,1.968,2.461,2.613,84.0,9.77,42.64
-0.157,2.175,2.461,2.613,79.0,9.78,42.71
-0.225,1.16,2.461,2.613,79.0,9.77,42.9
-0.266,0.767,2.461,2.613,79.0,9.77,42.93
-0.278,0.849,2.46,2.613,79.0,9.77,42.77
-0.281,0.994,2.46,2.613,79.0,9.77,42.5
-0.388,0.539,2.459,2.613,79.0,9.77,42.27
-0.005,0.642,2.459,2.613,79.0,9.77,42.46
-0.41,0.849,2.459,2.61,79.0,9.77,42.68
-0.299,1.015,2.459,2.61,79.0,9.78,43.17
-0.214,0.787,2.459,2.61,80.0,9.77,44.02
-0.085,0.601,2.459,2.61,80.0,9.78,44.92
-0.33,0.746,2.459,2.61,80.0,9.78,45.7
-0.43,0.849,2.459,2.611,80.0,9.77,46.27
-0.434,0.601,2.459,2.613,80.0,9.77,46.4
-0.419,0.601,2.459,2.613,80.0,9.76,46.09
-0.402,0.704,2.459,2.613,80.0,9.76,46.09
-0.462,0.704,2.459,2.613,80.0,9.76,46.12
-0.065,0.704,2.46,2.613,80.0,9.76,46.07
-0.438,0.663,2.461,2.61,80.0,9.76,45.92
-0.339,0.456,2.461,2.61,80.0,9.76,45.65
-0.23,0.559,2.461,2.61,84.0,9.76,45.55
-0.106,0.497,2.461,2.61,84.0,9.76,45.55
-0.331,0.477,2.461,2.61,84.0,9.77,45.51
-0.415,3.543,2.461,2.61,84.0,9.77,45.48
-0.402,5.677,2.461,2.61,84.0,9.78,45.43
-0.402,4.786,2.461,2.61,84.0,9.78,45.24
-0.329,6.733,2.464,2.613,84.0,9.78,45.08
-0.402,4.662,2.464,2.61,84.0,9.78,44.95
-0.404,2.32,2.464,2.613,84.0,9.78,44.84
-0.017,2.155,2.464,2.613,84.0,9.78,44.7
-0.269,2.175,2.464,2.613,84.0,9.77,44.65
-0.152,1.74,2.464,2.613,84.0,9.77,44.79
0.029,3.066,2.464,2.613,80.0,9.77,44.77
0.087,3.771,2.464,2.613,80.0,9.76,44.66
-0.155,0.663,2.464,2.614,80.0,9.76,44.47
-0.123,0.331,2.464,2.615,80.0,9.76,44.55
-0.089,2.03,2.464,2.615,80.0,9.76,44.53
-0.079,4.786,2.464,2.616,80.0,9.76,44.15
-0.009,6.195,2.464,2.615,80.0,9.76,43.36
0.081,1.409,2.464,2.615,80.0,9.76,42.77
0.003,1.077,2.464,2.614,80.0,9.76,42.47
0.29,1.119,2.464,2.613,80.0,9.76,42.75
0.124,1.575,2.464,2.613,80.0,9.76,42.93
0.098,3.17,2.464,2.613,73.0,9.76,42.35
0.143,2.134,2.464,2.613,73.0,9.77,41.92
0.263,0.891,2.464,2.613,73.0,9.76,41.93
0.065,0.725,2.462,2.611,73.0,9.76,42.59
-0.136,0.539,2.461,2.61,73.0,9.76,43.23
-0.149,0.767,2.461,2.611,73.0,9.76,43.52
-0.154,0.953,2.461,2.611,73.0,9.76,43.32
-0.152,0.808,2.461,2.61,73.0,9.74,43.13
-0.105,0.808,2.461,2.61,73.0,9.74,42.93
-0.131,0.497,2.461,2.611,73.0,9.74,42.82
-0.17,0.601,2.461,2.61,73.0,9.73,42.89
0.195,0.787,2.461,2.61,73.0,9.74,43.05
-0.108,0.601,2.461,2.61,73.0,9.74,43.0
-0.001,0.746,2.461,2.609,73.0,9.76,43.11
0.117,0.58,2.461,2.608,73.0,9.76,43.34
0.206,0.601,2.461,2.608,73.0,9.76,43.44
-0.061,0.435,2.461,2.608,73.0,9.76,43.4
-0.124,0.746,2.461,2.608,104.0,9.76,43.41
-0.138,0.58,2.461,2.606,104.0,9.76,43.38
-0.169,1.575,2.461,2.606,104.0,9.76,43.27
-0.188,7.956,2.459,2.605,104.0,9.76,43.2
-0.211,6.091,2.459,2.605,104.0,9.76,43.2
-0.198,4.309,2.459,2.605,104.0,9.76,43.34
-0.19,3.004,2.459,2.605,104.0,9.76,43.49
-0.243,4.641,2.459,2.606,104.0,9.76,43.65
0.156,2.631,2.459,2.608,104.0,9.76,43.93
-0.223,2.486,2.459,2.608,104.0,9.76,44.35
-0.081,1.989,2.459,2.608,104.0,9.76,44.81
0.048,1.616,2.457,2.608,104.0,9.76,45.19
0.21,2.735,2.456,2.609,104.0,9.76,45.6
-0.043,0.994,2.456,2.61,104.0,9.76,45.87
-0.107,0.477,2.456,2.61,104.0,9.77,46.04
-0.071,0.787,2.456,2.61,104.0,9.77,46.18
-0.055,3.999,2.456,2.61,104.0,9.77,46.29
-0.028,2.093,2.456,2.611,104.0,9.77,46.35
0.039,0.787,2.456,2.611,104.0,9.77,46.46
-0.008,1.181,2.456,2.61,104.0,9.77,46.64
0.11,1.471,2.456,2.61,104.0,9.77,47.03
0.352,0.642,2.456,2.61,104.0,9.78,47.7
0.182,0.352,2.456,2.61,104.0,9.78,48.19
0.261,0.559,2.455,2.61,104.0,9.78,48.49
0.44,0.642,2.454,2.61,104.0,9.78,48.92
0.338,3.253,2.454,2.61,104.0,9.78,49.41
0.126,3.191,2.454,2.61,104.0,9.78,49.86
0.141,3.957,2.454,2.61,104.0,9.78,50.09
0.157,2.818,2.454,2.61,104.0,9.78,50.0
0.147,1.533,2.454,2.61,104.0,9.78,49.72
0.215,3.833,2.454,2.609,104.0,9.78,49.62
0.149,2.03,2.454,2.611,104.0,9.78,49.45
0.151,0.559,2.454,2.61,104.0,9.78,49.28
0.515,0.787,2.451,2.61,104.0,9.78,49.05
0.234,2.01,2.454,2.61,104.0,9.78,48.66
0.32,0.87,2.452,2.608,104.0,9.78,48.33
0.487,2.569,2.451,2.606,104.0,9.78,48.14
0.477,1.119,2.451,2.608,104.0,9.78,47.92
0.197,2.134,2.451,2.608,104.0,9.78,47.42
0.198,1.098,2.451,2.61,104.0,9.78,46.79
0.203,1.057,2.451,2.608,104.0,9.78,46.16
0.198,0.394,2.449,2.608,104.0,9.78,45.68
0.238,0.435,2.449,2.608,104.0,9.78,45.25
0.201,0.456,2.449,2.606,104.0,9.78,44.87
0.162,0.435,2.449,2.605,104.0,9.78,44.51
0.539,0.849,2.449,2.605,104.0,9.78,44.19
0.196,0.539,2.449,2.605,104.0,9.78,43.89
0.295,0.684,2.449,2.605,104.0,9.78,43.69
0.424,0.912,2.449,2.609,104.0,9.78,43.52
0.522,0.497,2.449,2.605,104.0,9.78,43.45
0.225,0.373,2.449,2.605,104.0,9.78,43.47
0.165,0.311,2.449,2.608,104.0,9.78,43.46
0.178,0.435,2.449,2.605,104.0,9.78,43.32
0.159,0.352,2.449,2.609,104.0,9.78,42.95
0.198,0.311,2.449,2.61,104.0,9.78,42.53
0.179,0.58,2.45,2.61,104.0,9.78,42.53
0.118,0.331,2.451,2.61,104.0,9.78,42.67
0.474,0.787,2.451,2.61,104.0,9.78,42.95
0.107,0.518,2.451,2.61,75.0,9.79,43.33
0.203,0.311,2.454,2.613,75.0,9.78,43.45
0.315,0.29,2.454,2.61,75.0,9.79,43.48
0.41,0.311,2.455,2.61,75.0,9.78,43.62
0.097,0.331,2.456,2.61,75.0,9.78,43.88
0.019,1.015,2.456,2.61,75.0,9.78,44.21
0.024,1.575,2.457,2.61,75.0,9.79,44.5
0.032,0.373,2.459,2.61,75.0,9.79,44.71
0.071,0.331,2.459,2.61,75.0,9.8,44.98
-0.013,0.394,2.461,2.61,75.0,9.79,45.36
0.242,0.373,2.461,2.61,58.0,9.78,45.81
0.112,0.746,2.461,2.61,58.0,9.78,46.16
0.072,0.414,2.462,2.61,58.0,9.78,46.34
0.166,0.352,2.464,2.61,58.0,9.78,46.55
0.325,0.352,2.464,2.61,58.0,9.78,46.86
0.118,0.29,2.466,2.61,58.0,9.78,47.17
-0.056,0.331,2.465,2.61,82.0,9.78,47.38
-0.055,0.331,2.466,2.61,82.0,9.78,47.56
-0.044,0.331,2.466,2.61,82.0,9.78,47.68
0.0,0.352,2.466,2.61,82.0,9.78,47.82
-0.077,0.331,2.466,2.61,82.0,9.78,47.94
0.182,0.456,2.466,2.61,82.0,9.78,48.06
0.09,0.477,2.466,2.61,82.0,9.78,48.19
0.035,0.331,2.466,2.61,82.0,9.78,48.18
0.138,0.331,2.469,2.61,82.0,9.78,48.09
0.293,0.311,2.466,2.61,82.0,9.78,48.03
0.113,0.352,2.466,2.61,82.0,9.78,48.0
-0.008,0.331,2.466,2.61,82.0,9.78,47.88
0.022,0.352,2.466,2.61,82.0,9.78,47.71
0.04,0.311,2.466,2.61,82.0,9.78,47.4
0.106,0.352,2.466,2.61,82.0,9.78,47.03
0.059,0.311,2.466,2.61,82.0,9.78,46.68
0.03,0.373,2.466,2.613,82.0,9.78,46.37
0.416,0.684,2.464,2.613,82.0,9.78,46.06
0.121,0.373,2.464,2.613,82.0,9.78,45.73
0.203,0.331,2.464,2.613,82.0,9.78,45.35
0.351,0.311,2.464,2.615,82.0,9.78,45.04
0.394,0.311,2.464,2.615,82.0,9.78,44.79
0.109,0.311,2.462,2.615,82.0,9.78,44.55
0.082,0.331,2.461,2.616,80.0,9.78,44.31
0.088,0.331,2.461,2.618,80.0,9.78,44.04
0.08,0.331,2.461,2.618,80.0,9.78,43.73
0.135,0.311,2.461,2.619,80.0,9.78,43.56
0.045,0.331,2.461,2.62,80.0,9.78,43.49
0.071,0.373,2.461,2.62,80.0,9.78,43.46
0.358,0.663,2.46,2.62,80.0,9.78,43.44
0.131,0.311,2.459,2.62,80.0,9.78,43.38
0.216,0.311,2.46,2.62,80.0,9.78,43.34
0.375,0.352,2.459,2.619,80.0,9.78,43.36
0.301,0.311,2.459,2.62,80.0,9.78,43.39
0.06,0.331,2.459,2.62,79.0,9.78,43.39
0.051,0.311,2.459,2.618,79.0,9.78,43.38
0.047,0.331,2.459,2.618,79.0,9.78,43.27
0.034,0.331,2.457,2.62,79.0,9.78,43.14
0.062,0.331,2.456,2.618,79.0,9.78,43.1
0.006,0.311,2.456,2.618,79.0,9.78,43.12
-0.023,0.311,2.456,2.618,79.0,9.78,43.15
0.383,0.559,2.456,2.619,79.0,9.78,43.16
-0.023,0.456,2.454,2.618,79.0,9.79,43.13
0.107,0.331,2.455,2.618,79.0,9.78,43.17
0.218,0.311,2.454,2.618,79.0,9.79,43.25
0.347,0.311,2.454,2.618,79.0,9.79,43.26
0.074,0.311,2.454,2.618,79.0,9.79,43.28
-0.027,0.352,2.454,2.618,74.0,9.8,43.29
-0.029,0.331,2.454,2.618,74.0,9.79,43.28
-0.045,0.311,2.454,2.618,74.0,9.79,43.18
-0.058,0.331,2.454,2.618,74.0,9.79,43.13
-0.009,0.311,2.452,2.618,74.0,9.8,43.23
-0.096,0.311,2.452,2.618,74.0,9.8,43.4
-0.09,0.394,2.452,2.618,74.0,9.8,43.62
0.221,0.601,2.451,2.618,74.0,9.8,43.81
-0.032,0.311,2.451,2.618,74.0,9.8,43.98
0.04,0.29,2.451,2.618,74.0,9.79,44.19
0.185,0.331,2.451,2.618,74.0,9.8,44.47
0.128,0.29,2.451,2.618,74.0,9.8,44.77
-0.131,0.311,2.451,2.618,74.0,9.8,45.0
-0.143,0.311,2.451,2.618,74.0,9.8,45.22
-0.135,0.311,2.451,2.618,74.0,9.79,45.32
-0.118,0.311,2.45,2.618,74.0,9.8,45.42
-0.088,0.373,2.449,2.618,74.0,9.8,45.63
-0.167,0.331,2.449,2.618,74.0,9.8,45.9
0.139,0.414,2.449,2.618,74.0,9.8,46.23
-0.065,0.497,2.449,2.618,74.0,9.8,46.47
-0.063,0.311,2.449,2.618,74.0,9.8,46.62
0.036,0.311,2.449,2.618,79.0,9.8,46.79
0.188,0.352,2.449,2.618,79.0,9.8,47.04
-0.032,0.311,2.449,2.616,79.0,9.8,47.31
-0.183,0.311,2.446,2.615,79.0,9.8,47.51
-0.18,0.331,2.446,2.615,79.0,9.8,47.69
-0.183,0.331,2.446,2.616,79.0,9.8,47.72
-0.159,0.331,2.446,2.615,79.0,9.8,47.75
-0.132,0.331,2.446,2.615,79.0,9.8,47.82
-0.201,0.311,2.446,2.615,79.0,9.8,47.89
0.175,0.497,2.446,2.615,79.0,9.8,47.93
-0.11,0.456,2.445,2.615,79.0,9.8,47.87
-0.062,0.331,2.444,2.615,79.0,9.8,47.78
0.046,0.311,2.444,2.615,78.0,9.8,47.72
0.197,0.311,2.444,2.615,78.0,9.8,47.71
-0.023,0.352,2.444,2.615,78.0,9.8,47.67
-0.141,0.311,2.444,2.615,78.0,9.8,47.56
-0.117,0.331,2.444,2.615,78.0,9.8,47.41
-0.105,0.331,2.444,2.615,78.0,9.8,47.13
-0.095,0.29,2.442,2.615,78.0,9.8,46.81
-0.084,0.311,2.441,2.615,78.0,9.8,46.56
-0.023,0.311,2.441,2.615,78.0,9.8,46.37
-0.06,0.331,2.441,2.615,78.0,9.8,46.21
-0.083,0.311,2.441,2.615,78.0,9.8,45.99
0.316,0.663,2.441,2.614,78.0,9.8,45.76
0.023,0.373,2.441,2.613,78.0,9.8,45.57
0.112,0.331,2.441,2.613,78.0,9.8,45.38
0.259,0.331,2.441,2.613,78.0,9.8,45.22
0.333,0.311,2.44,2.613,78.0,9.8,45.04
0.05,0.311,2.44,2.613,78.0,9.8,44.83
0.014,0.311,2.441,2.613,68.0,9.8,44.63
0.024,0.311,2.439,2.613,68.0,9.8,44.36
0.016,0.311,2.439,2.613,68.0,9.8,44.05
0.015,0.311,2.439,2.613,68.0,9.8,43.85
0.013,0.311,2.439,2.613,68.0,9.82,43.73
0.059,0.29,2.439,2.613,68.0,9.8,43.67
0.037,0.331,2.439,2.613,68.0,9.82,43.63
-0.002,0.311,2.439,2.613,68.0,9.82,43.54
0.391,0.601,2.439,2.613,68.0,9.82,43.49
0.032,0.394,2.439,2.613,68.0,9.82,43.48
0.136,0.352,2.439,2.613,68.0,9.82,43.49
0.257,0.311,2.439,2.613,68.0,9.82,43.49
0.378,0.311,2.439,2.613,68.0,9.82,43.5
0.089,0.311,2.439,2.613,68.0,9.82,43.49
0.004,0.331,2.436,2.613,65.0,9.82,43.49
0.008,0.331,2.437,2.613,65.0,9.82,43.44
0.0,0.352,2.436,2.611,65.0,9.82,43.3
-0.004,0.331,2.436,2.613,65.0,9.82,43.2
-0.011,0.311,2.436,2.613,65.0,9.82,43.19
-0.014,0.331,2.436,2.611,65.0,9.8,43.21
0.037,0.311,2.436,2.61,65.0,9.8,43.25
-0.03,0.311,2.436,2.61,65.0,9.8,43.25
0.002,0.352,2.436,2.61,65.0,9.8,43.25
0.28,0.601,2.436,2.61,65.0,9.8,43.28
0.052,0.331,2.436,2.61,65.0,9.8,43.31
0.126,0.29,2.436,2.61,65.0,9.8,43.35
0.285,0.311,2.436,2.61,65.0,9.8,43.37
0.244,0.311,2.435,2.61,65.0,9.8,43.39
-0.021,0.29,2.436,2.61,63.0,9.8,43.39
-0.04,0.311,2.436,2.61,63.0,9.82,43.4
-0.04,0.352,2.436,2.61,63.0,9.8,43.31
-0.055,0.311,2.436,2.61,63.0,9.82,43.2
-0.058,0.311,2.435,2.61,63.0,9.82,43.17
-0.066,0.311,2.435,2.61,63.0,9.82,43.18
-0.067,0.331,2.434,2.61,63.0,9.82,43.22
-0.022,0.331,2.434,2.61,63.0,9.82,43.25
-0.085,0.352,2.434,2.609,63.0,9.82,43.26
-0.07,0.373,2.434,2.609,63.0,9.82,43.26
0.221,0.725,2.434,2.609,63.0,9.8,43.3
-0.023,0.311,2.434,2.61,63.0,9.8,43.37
0.038,0.311,2.434,2.61,63.0,9.8,43.49
0.186,0.331,2.434,2.61,62.0,9.8,43.63
0.154,0.352,2.434,2.61,62.0,9.8,43.78
-0.136,0.331,2.434,2.61,62.0,9.82,43.96
-0.167,0.331,2.434,2.61,62.0,9.8,44.17
-0.166,0.331,2.434,2.61,62.0,9.83,44.29
-0.174,0.331,2.432,2.608,62.0,9.83,44.38
-0.18,0.311,2.431,2.608,62.0,9.83,44.6
-0.183,0.352,2.431,2.608,62.0,9.8,44.88
-0.154,0.331,2.431,2.608,62.0,9.82,45.19
-0.222,0.352,2.431,2.608,62.0,9.83,45.43
-0.052,0.477,2.431,2.608,62.0,9.84,45.58
-0.004,0.497,2.431,2.608,62.0,9.83,45.76
-0.133,0.311,2.431,2.608,62.0,9.83,46.02
-0.048,0.311,2.431,2.608,67.0,9.83,46.3
0.118,0.331,2.431,2.608,67.0,9.85,46.54
-0.027,0.352,2.431,2.608,67.0,9.85,46.77
-0.247,0.373,2.431,2.608,67.0,9.85,46.98
-0.245,0.311,2.431,2.608,67.0,9.84,47.16
-0.238,0.373,2.431,2.608,67.0,9.83,47.19
-0.234,0.311,2.431,2.608,67.0,9.84,47.19
-0.183,0.29,2.431,2.608,67.0,9.84,47.23
-0.214,0.311,2.431,2.608,67.0,9.84,47.29
-0.253,0.331,2.431,2.608,67.0,9.86,47.35
0.173,0.58,2.431,2.608,67.0,9.84,47.34
-0.199,0.373,2.431,2.608,67.0,9.84,47.3
-0.097,0.352,2.431,2.608,67.0,9.84,47.27
0.041,0.331,2.431,2.605,73.0,9.83,47.29
0.141,0.331,2.431,2.605,73.0,9.83,47.31
-0.166,0.311,2.431,2.606,73.0,9.83,47.3
-0.219,0.311,2.431,2.605,73.0,9.83,47.3
-0.201,0.352,2.431,2.605,73.0,9.83,47.22
-0.193,0.29,2.431,2.605,73.0,9.84,47.03
-0.181,0.331,2.431,2.605,73.0,9.83,46.88
-0.109,0.311,2.431,2.605,73.0,9.83,46.79
-0.164,0.311,2.431,2.605,73.0,9.83,46.73
-0.178,0.373,2.431,2.605,73.0,9.83,46.68
0.225,0.663,2.431,2.605,73.0,9.84,46.5
-0.061,0.352,2.431,2.605,73.0,9.84,46.28
0.023,0.352,2.429,2.605,73.0,9.84,46.09
0.185,0.331,2.429,2.605,73.0,9.84,45.9
0.225,0.331,2.429,2.605,73.0,9.84,45.72
-0.054,0.352,2.429,2.605,73.0,9.84,45.5
-0.074,0.331,2.429,2.605,72.0,9.85,45.3
-0.055,0.352,2.429,2.605,72.0,9.84,44.99
-0.059,0.331,2.429,2.605,72.0,9.84,44.61
-0.056,0.352,2.429,2.605,72.0,9.84,44.3
-0.053,0.331,2.429,2.605,72.0,9.84,44.11
0.008,0.373,2.429,2.605,72.0,9.84,43.97
-0.057,0.352,2.429,2.605,72.0,9.84,43.89
-0.067,0.352,2.429,2.605,72.0,9.84,43.77
0.29,0.622,2.429,2.605,72.0,9.83,43.69
0.023,0.352,2.429,2.605,72.0,9.84,43.65
0.094,0.331,2.429,2.604,72.0,9.83,43.65
0.252,0.352,2.429,2.604,72.0,9.84,43.64
0.274,0.331,2.427,2.605,72.0,9.84,43.61
-0.017,0.352,2.429,2.604,72.0,9.84,43.6
-0.048,0.352,2.427,2.605,66.0,9.84,43.58
-0.043,0.352,2.427,2.603,66.0,9.84,43.5
-0.051,0.331,2.426,2.605,66.0,9.84,43.34
-0.058,0.331,2.426,2.603,66.0,9.84,43.27
-0.067,0.331,2.426,2.603,66.0,9.84,43.26
-0.016,0.29,2.426,2.603,66.0,9.84,43.29
-0.064,0.331,2.426,2.603,66.0,9.85,43.32
-0.095,0.331,2.426,2.603,66.0,9.85,43.29
0.268,0.601,2.426,2.603,66.0,9.85,43.29
-0.021,0.352,2.426,2.603,66.0,9.85,43.33
0.051,0.331,2.426,2.603,66.0,9.85,43.37
0.188,0.352,2.426,2.603,66.0,9.85,43.38
0.283,0.352,2.426,2.603,66.0,9.85,43.39
-0.025,0.331,2.426,2.603,66.0,9.85,43.39
-0.09,0.331,2.426,2.603,65.0,9.85,43.4
-0.089,0.331,2.426,2.603,65.0,9.85,43.36
-0.098,0.331,2.425,2.603,65.0,9.85,43.26
-0.11,0.311,2.424,2.603,65.0,9.85,43.25
-0.122,0.352,2.424,2.603,65.0,9.85,43.33
-0.133,0.311,2.424,2.603,65.0,9.84,43.44
-0.09,0.373,2.424,2.603,65.0,9.85,43.59
-0.15,0.311,2.424,2.603,65.0,9.85,43.69
-0.175,0.373,2.424,2.603,65.0,9.85,43.81
0.185,0.622,2.424,2.603,65.0,9.85,44.0
-0.1,0.352,2.424,2.603,65.0,9.85,44.23
-0.039,0.331,2.424,2.601,65.0,9.85,44.47
0.104,0.331,2.424,2.601,62.0,9.85,44.7
0.153,0.352,2.424,2.601,62.0,9.85,44.93
-0.158,0.331,2.424,2.6,62.0,9.84,45.12
-0.2,0.352,2.424,2.603,62.0,9.84,45.32
-0.189,0.311,2.424,2.6,62.0,9.84,45.44
-0.19,0.311,2.424,2.6,62.0,9.84,45.51
-0.189,0.331,2.424,2.6,62.0,9.85,45.67
-0.177,0.311,2.424,2.6,62.0,9.85,45.89
-0.138,0.331,2.424,2.601,62.0,9.85,46.15
-0.212,0.352,2.424,2.6,62.0,9.85,46.37
-0.01,0.477,2.424,2.6,62.0,9.85,46.46
0.004,0.539,2.424,2.6,62.0,9.85,46.56
-0.105,0.352,2.424,2.6,62.0,9.85,46.71
-0.008,0.269,2.424,2.6,68.0,9.86,46.87
0.167,0.311,2.424,2.6,68.0,9.85,47.01
0.022,0.331,2.424,2.6,68.0,9.85,47.09
-0.191,0.352,2.424,2.6,68.0,9.85,47.17
-0.188,0.311,2.424,2.6,68.0,9.86,47.23
-0.18,0.331,2.424,2.6,68.0,9.86,47.16
-0.179,0.331,2.424,2.6,68.0,9.86,47.05
-0.174,0.331,2.424,2.6,68.0,9.85,47.02
-0.116,0.352,2.424,2.6,68.0,9.86,47.0
-0.175,0.331,2.424,2.6,68.0,9.86,47.02
-0.196,0.352,2.424,2.6,68.0,9.85,46.97
0.213,0.58,2.422,2.6,68.0,9.86,46.87
-0.098,0.373,2.422,2.6,68.0,9.86,46.82
-0.02,0.311,2.422,2.599,68.0,9.86,46.81
0.133,0.331,2.422,2.6,68.0,9.86,46.81
0.178,0.311,2.421,2.598,68.0,9.86,46.79
-0.117,0.311,2.421,2.598,68.0,9.85,46.74
-0.145,0.331,2.421,2.598,69.0,9.85,46.66
-0.123,0.352,2.421,2.598,69.0,9.85,46.49
-0.114,0.311,2.421,2.598,69.0,9.85,46.23
-0.106,0.331,2.421,2.598,69.0,9.85,46.03
-0.099,0.352,2.421,2.598,69.0,9.85,45.87
-0.031,0.373,2.421,2.598,69.0,9.85,45.75
-0.083,0.352,2.421,2.598,69.0,9.85,45.63
-0.103,0.373,2.421,2.598,69.0,9.85,45.42
0.284,0.642,2.421,2.598,69.0,9.85,45.21
0.002,0.373,2.421,2.598,69.0,9.85,45.05
0.083,0.373,2.421,2.598,69.0,9.85,44.91
0.242,0.311,2.42,2.598,69.0,9.85,44.75
0.312,0.352,2.419,2.598,69.0,9.85,44.6
0.007,0.331,2.419,2.598,69.0,9.85,44.44
-0.03,0.311,2.42,2.598,69.0,9.83,44.3
-0.014,0.311,2.419,2.598,69.0,9.83,44.08
-0.016,0.311,2.419,2.598,69.0,9.83,43.8
-0.018,0.311,2.419,2.598,69.0,9.83,43.61
-0.02,0.352,2.419,2.598,69.0,9.83,43.53
-0.019,0.311,2.42,2.598,69.0,9.84,43.5
0.035,0.352,2.419,2.598,69.0,9.85,43.49
-0.024,0.331,2.419,2.598,69.0,9.85,43.44
-0.002,0.373,2.419,2.598,69.0,9.85,43.42
0.314,0.642,2.419,2.598,66.0,9.84,43.43
0.065,0.352,2.419,2.598,66.0,9.84,43.43
0.144,0.311,2.419,2.598,66.0,9.83,43.44
0.309,0.331,2.419,2.596,66.0,9.84,43.45
0.302,0.373,2.419,2.598,66.0,9.83,43.46
0.013,0.331,2.419,2.595,66.0,9.83,43.45
-0.013,0.331,2.419,2.598,66.0,9.83,43.44
-0.009,0.311,2.419,2.596,66.0,9.84,43.35
-0.018,0.311,2.419,2.596,66.0,9.84,43.21
-0.027,0.331,2.419,2.598,66.0,9.84,43.18
-0.035,0.352,2.419,2.595,49.0,9.84,43.2
-0.027,0.331,2.419,2.595,49.0,9.84,43.22
-0.008,0.331,2.419,2.595,49.0,9.84,43.23
-0.072,0.311,2.419,2.595,49.0,9.84,43.22
0.165,0.559,2.417,2.595,49.0,9.84,43.22
0.051,0.539,2.419,2.595,49.0,9.84,43.27
0.007,0.352,2.417,2.595,49.0,9.84,43.38
0.092,0.331,2.417,2.595,49.0,9.84,43.54
0.266,0.331,2.416,2.595,49.0,9.84,43.72
0.107,0.331,2.416,2.595,49.0,9.84,43.89
-0.12,0.331,2.416,2.595,49.0,9.84,44.07
-0.13,0.373,2.416,2.595,49.0,9.84,44.27
-0.126,0.373,2.416,2.595,49.0,9.84,44.37
-0.13,0.331,2.416,2.595,49.0,9.84,44.5
-0.133,0.331,2.416,2.595,49.0,9.84,44.71
-0.097,0.331,2.416,2.595,49.0,9.84,44.96
-0.122,0.331,2.416,2.595,49.0,9.84,45.25
-0.167,0.311,2.416,2.595,49.0,9.84,45.5
0.252,0.622,2.416,2.595,49.0,9.85,45.66
-0.142,0.414,2.416,2.595,49.0,9.84,45.86
-0.038,0.394,2.416,2.595,49.0,9.84,46.1
0.087,0.331,2.415,2.595,68.0,9.85,46.38
0.221,0.352,2.416,2.594,68.0,9.84,46.65
-0.086,0.331,2.415,2.595,68.0,9.84,46.86
-0.174,0.331,2.416,2.595,68.0,9.85,47.03
-0.166,0.311,2.414,2.595,68.0,9.85,47.14
-0.165,0.331,2.415,2.594,68.0,9.85,47.11
-0.161,0.331,2.415,2.594,68.0,9.84,47.09
-0.105,0.352,2.415,2.594,68.0,9.83,47.09
-0.146,0.311,2.414,2.593,68.0,9.83,47.1
-0.181,0.311,2.416,2.593,68.0,9.83,47.1
0.247,0.518,2.414,2.595,68.0,9.83,47.0
-0.122,0.373,2.414,2.595,68.0,9.82,46.87
-0.018,0.352,2.414,2.593,68.0,9.82,46.79
0.115,0.311,2.414,2.593,71.0,9.82,46.75
0.226,0.331,2.414,2.593,71.0,9.83,46.68
-0.068,0.352,2.414,2.593,71.0,9.83,46.56
-0.125,0.331,2.414,2.593,71.0,9.83,46.41
-0.105,0.331,2.414,2.593,71.0,9.83,46.23
-0.097,0.331,2.414,2.593,71.0,9.83,45.92
-0.089,0.311,2.414,2.593,71.0,9.83,45.63
-0.081,0.311,2.414,2.593,71.0,9.83,45.43
-0.014,0.331,2.414,2.593,71.0,9.83,45.29
-0.076,0.331,2.411,2.593,71.0,9.83,45.2
-0.086,0.331,2.411,2.593,71.0,9.83,45.05
0.285,0.684,2.412,2.593,71.0,9.83,44.86
0.004,0.352,2.411,2.593,71.0,9.83,44.69
0.082,0.352,2.411,2.593,71.0,9.83,44.57
0.242,0.331,2.411,2.593,71.0,9.83,44.47
0.284,0.331,2.411,2.593,71.0,9.83,44.36
-0.019,0.331,2.411,2.593,71.0,9.83,44.22
-0.053,0.331,2.411,2.593,67.0,9.83,44.08
-0.04,0.331,2.411,2.593,67.0,9.83,43.89
-0.043,0.352,2.411,2.593,67.0,9.83,43.67
-0.046,0.331,2.411,2.593,67.0,9.83,43.52
-0.046,0.331,2.411,2.593,67.0,9.83,43.47
-0.001,0.373,2.411,2.593,67.0,9.83,43.44
-0.023,0.331,2.411,2.593,67.0,9.83,43.45
-0.064,0.352,2.411,2.593,67.0,9.83,43.41
0.335,0.663,2.411,2.593,67.0,9.83,43.39
-0.038,0.435,2.411,2.593,67.0,9.83,43.4
0.071,0.331,2.411,2.593,67.0,9.83,43.43
0.196,0.331,2.411,2.591,67.0,9.83,43.44
0.344,0.352,2.411,2.591,67.0,9.83,43.44
0.058,0.331,2.411,2.591,67.0,9.83,43.44
-0.042,0.331,2.411,2.59,65.0,9.83,43.44
-0.037,0.331,2.411,2.591,65.0,9.83,43.42
-0.037,0.331,2.411,2.59,65.0,9.83,43.29
-0.041,0.331,2.411,2.59,65.0,9.83,43.21
-0.046,0.373,2.411,2.59,65.0,9.83,43.21
-0.041,0.352,2.411,2.59,65.0,9.83,43.22
0.011,0.373,2.41,2.59,65.0,9.83,43.26
-0.059,0.352,2.41,2.59,65.0,9.83,43.26
-0.004,0.394,2.411,2.59,65.0,9.83,43.26
0.246,0.622,2.411,2.59,65.0,9.83,43.28
0.032,0.331,2.411,2.59,65.0,9.83,43.31
0.113,0.331,2.41,2.59,65.0,9.83,43.34
0.287,0.331,2.411,2.59,65.0,9.83,43.36
0.261,0.331,2.411,2.59,65.0,9.83,43.37
-0.013,0.29,2.41,2.59,65.0,9.83,43.37
-0.039,0.373,2.411,2.59,64.0,9.83,43.37
-0.035,0.311,2.409,2.59,64.0,9.83,43.31
-0.045,0.331,2.409,2.59,64.0,9.83,43.22
-0.054,0.352,2.409,2.59,64.0,9.83,43.26
-0.062,0.331,2.409,2.59,64.0,9.83,43.37
-0.015,0.29,2.409,2.59,64.0,9.83,43.53
-0.088,0.331,2.409,2.59,64.0,9.83,43.72
-0.093,0.394,2.409,2.59,64.0,9.83,43.87
0.237,0.58,2.409,2.59,64.0,9.83,44.05
-0.028,0.352,2.409,2.59,64.0,9.83,44.26
0.037,0.373,2.409,2.59,64.0,9.83,44.48
0.189,0.311,2.407,2.59,64.0,9.83,44.72
0.196,0.352,2.406,2.59,64.0,9.83,44.94
-0.109,0.331,2.406,2.59,65.0,9.83,45.13
-0.143,0.311,2.406,2.59,65.0,9.83,45.33
-0.133,0.311,2.406,2.59,65.0,9.83,45.45
-0.138,0.331,2.406,2.589,65.0,9.83,45.54
-0.14,0.331,2.406,2.589,65.0,9.83,45.71
-0.086,0.331,2.406,2.588,65.0,9.83,45.92
-0.153,0.331,2.406,2.589,65.0,9.83,46.17
-0.176,0.352,2.406,2.589,65.0,9.83,46.41
0.22,0.539,2.406,2.588,65.0,9.83,46.51
-0.093,0.331,2.406,2.588,65.0,9.83,46.59
-0.02,0.373,2.405,2.588,65.0,9.83,46.74
0.129,0.352,2.405,2.588,70.0,9.83,46.88
0.18,0.331,2.406,2.588,70.0,9.83,47.02
-0.12,0.373,2.406,2.588,70.0,9.83,47.06
-0.156,0.331,2.405,2.588,70.0,9.83,47.08
-0.148,0.352,2.404,2.588,70.0,9.83,47.01
-0.146,0.331,2.404,2.588,70.0,9.84,46.84
-0.137,0.311,2.404,2.588,70.0,9.83,46.74
-0.071,0.331,2.404,2.588,70.0,9.84,46.69
-0.136,0.331,2.404,2.588,70.0,9.84,46.7
-0.141,0.373,2.404,2.588,70.0,9.84,46.67
0.246,0.559,2.404,2.588,70.0,9.84,46.52
-0.04,0.331,2.404,2.588,70.0,9.84,46.32
0.043,0.352,2.404,2.588,70.0,9.84,46.18
0.206,0.311,2.402,2.588,70.0,9.84,46.03
0.234,0.29,2.402,2.588,70.0,9.84,45.89
-0.046,0.352,2.401,2.588,70.0,9.84,45.69
-0.066,0.352,2.401,2.588,71.0,9.84,45.47
-0.05,0.352,2.401,2.588,71.0,9.84,45.16
-0.051,0.311,2.401,2.588,71.0,9.84,44.81
-0.05,0.352,2.401,2.588,71.0,9.84,44.53
-0.047,0.311,2.401,2.588,71.0,9.84,44.34
0.013,0.331,2.401,2.588,71.0,9.84,44.19
-0.056,0.311,2.401,2.588,71.0,9.84,44.08
-0.041,0.394,2.401,2.588,71.0,9.84,43.95
0.284,0.622,2.401,2.588,71.0,9.84,43.85
0.029,0.29,2.401,2.588,71.0,9.84,43.79
0.106,0.373,2.401,2.588,71.0,9.84,43.76
0.271,0.331,2.401,2.588,71.0,9.84,43.74
0.277,0.394,2.401,2.588,71.0,9.84,43.7
-0.014,0.331,2.401,2.588,71.0,9.84,43.66
-0.043,0.331,2.4,2.588,67.0,9.84,43.62
-0.038,0.331,2.399,2.588,67.0,9.84,43.5
-0.049,0.331,2.399,2.588,67.0,9.84,43.35
-0.052,0.352,2.399,2.588,67.0,9.84,43.29
-0.053,0.352,2.399,2.588,67.0,9.84,43.28
0.003,0.352,2.399,2.588,67.0,9.84,43.3
-0.064,0.311,2.399,2.588,67.0,9.84,43.33
-0.062,0.435,2.399,2.588,67.0,9.84,43.32
0.27,0.622,2.399,2.586,67.0,9.84,43.32
0.013,0.311,2.399,2.586,67.0,9.84,43.34
0.086,0.331,2.399,2.588,67.0,9.84,43.38
0.247,0.331,2.399,2.588,67.0,9.84,43.39
0.272,0.29,2.399,2.588,67.0,9.84,43.4
-0.022,0.311,2.397,2.588,67.0,9.84,43.4
-0.06,0.352,2.399,2.586,66.0,9.84,43.4
-0.058,0.311,2.399,2.586,66.0,9.84,43.35
-0.066,0.352,2.396,2.586,66.0,9.84,43.25
-0.077,0.331,2.396,2.586,66.0,9.84,43.22
-0.089,0.311,2.396,2.585,66.0,9.84,43.27
-0.048,0.331,2.396,2.585,66.0,9.84,43.4
-0.095,0.331,2.396,2.585,66.0,9.84,43.56
0.233,0.601,2.396,2.585,66.0,9.84,43.72
0.212,0.601,2.396,2.585,66.0,9.84,43.9
-0.104,0.373,2.396,2.585,66.0,9.84,44.13
-0.018,0.352,2.395,2.585,70.0,9.84,44.39
0.105,0.331,2.395,2.585,70.0,9.85,44.62
0.224,0.311,2.395,2.585,70.0,9.85,45.01
-0.079,0.331,2.394,2.585,70.0,9.85,45.03
-0.164,0.331,2.394,2.585,70.0,9.85,45.21
-0.157,0.352,2.394,2.585,70.0,9.85,45.33
-0.161,0.311,2.394,2.585,70.0,9.85,45.37
-0.165,0.331,2.394,2.585,70.0,9.85,45.47
-0.161,0.352,2.394,2.585,70.0,9.85,45.65
-0.113,0.352,2.394,2.585,70.0,9.85,45.86
-0.188,0.352,2.394,2.585,70.0,9.84,46.05
-0.148,0.414,2.394,2.585,70.0,9.85,46.13
0.141,0.559,2.394,2.585,70.0,9.85,46.18
-0.108,0.331,2.394,2.585,70.0,9.85,46.28
-0.03,0.331,2.394,2.585,70.0,9.85,46.4
0.128,0.373,2.392,2.585,63.0,9.85,46.52
0.091,0.311,2.394,2.585,63.0,9.85,46.6
-0.177,0.311,2.392,2.585,63.0,9.85,46.63
-0.189,0.29,2.391,2.585,63.0,9.85,46.64
-0.183,0.394,2.391,2.585,63.0,9.85,46.53
-0.182,0.352,2.391,2.585,63.0,9.85,46.38
-0.177,0.352,2.391,2.585,63.0,9.85,46.3
-0.133,0.331,2.391,2.585,63.0,9.85,46.26
-0.148,0.331,2.391,2.585,63.0,9.85,46.26
-0.191,0.311,2.391,2.585,63.0,9.85,46.22
0.239,0.559,2.391,2.584,63.0,9.85,46.11
-0.162,0.414,2.391,2.584,63.0,9.85,46.0
-0.042,0.331,2.391,2.584,63.0,9.85,45.93
0.085,0.331,2.391,2.585,69.0,9.85,45.88
0.235,0.331,2.391,2.584,69.0,9.85,45.81
-0.033,0.331,2.391,2.584,69.0,9.85,45.71
-0.126,0.352,2.391,2.583,69.0,9.85,45.58
-0.107,0.331,2.391,2.583,69.0,9.85,45.42
-0.098,0.311,2.391,2.583,69.0,9.85,45.14
-0.094,0.331,2.391,2.584,69.0,9.85,44.91
-0.089,0.352,2.391,2.583,69.0,9.85,44.77
-0.038,0.311,2.391,2.583,69.0,9.85,44.67
-0.065,0.352,2.391,2.584,69.0,9.85,44.63
-0.101,0.331,2.391,2.583,69.0,9.85,44.51
0.302,0.642,2.391,2.583,69.0,9.85,44.37
-0.057,0.394,2.391,2.583,69.0,9.85,44.26
0.049,0.352,2.391,2.583,69.0,9.85,44.18
0.18,0.331,2.391,2.583,69.0,9.85,44.11
0.333,0.331,2.39,2.583,69.0,9.85,44.03
0.053,0.352,2.389,2.583,69.0,9.85,43.95
-0.041,0.311,2.391,2.583,66.0,9.85,43.88
-0.031,0.373,2.391,2.583,66.0,9.85,43.77
-0.034,0.331,2.391,2.583,66.0,9.85,43.56
-0.037,0.331,2.389,2.583,66.0,9.85,43.43
-0.042,0.331,2.389,2.583,66.0,9.85,43.39
-0.01,0.352,2.389,2.583,66.0,9.85,43.38
-0.012,0.373,2.389,2.583,66.0,9.85,43.4
-0.062,0.331,2.389,2.583,66.0,9.85,43.39
0.223,0.539,2.389,2.583,66.0,9.85,43.37
0.029,0.58,2.389,2.583,66.0,9.85,43.38
0.036,0.331,2.389,2.583,66.0,9.85,43.43
0.128,0.373,2.389,2.583,66.0,9.85,43.44
0.307,0.331,2.389,2.583,66.0,9.85,43.45
0.167,0.331,2.389,2.583,66.0,9.85,43.45
-0.05,0.29,2.389,2.583,64.0,9.85,43.44
-0.057,0.352,2.389,2.583,64.0,9.85,43.44
-0.059,0.352,2.388,2.583,64.0,9.85,43.35
-0.07,0.311,2.389,2.583,64.0,9.85,43.23
-0.076,0.29,2.388,2.583,64.0,9.85,43.26
-0.069,0.331,2.388,2.583,64.0,9.85,43.36
-0.041,0.352,2.388,2.583,64.0,9.85,43.53
-0.115,0.331,2.387,2.583,64.0,9.85,43.69
0.187,0.518,2.387,2.581,64.0,9.85,43.84
-0.037,0.539,2.387,2.583,64.0,9.85,44.01
-0.019,0.352,2.387,2.583,64.0,9.85,44.24
0.075,0.352,2.387,2.583,64.0,9.85,44.49
0.249,0.352,2.387,2.583,64.0,9.85,44.72
0.09,0.331,2.387,2.583,64.0,9.85,44.93
-0.117,0.29,2.387,2.58,67.0,9.85,45.11
-0.119,0.29,2.387,2.58,67.0,9.85,45.3
-0.117,0.331,2.387,2.583,67.0,9.85,45.38
-0.121,0.331,2.387,2.581,67.0,9.85,45.46
-0.089,0.352,2.387,2.583,67.0,9.85,45.65
-0.131,0.352,2.387,2.58,67.0,9.85,45.86
-0.159,0.352,2.387,2.581,67.0,9.85,46.1
0.265,0.435,2.387,2.581,67.0,9.85,46.26
-0.158,0.497,2.387,2.58,67.0,9.85,46.31
-0.041,0.331,2.385,2.581,67.0,9.85,46.4
0.069,0.352,2.385,2.58,72.0,9.85,46.67
0.228,0.352,2.384,2.58,72.0,9.85,46.69
-0.02,0.352,2.387,2.581,72.0,9.85,46.79
-0.15,0.311,2.384,2.58,72.0,9.85,46.84
-0.143,0.331,2.384,2.58,72.0,9.85,46.88
-0.144,0.331,2.385,2.583,72.0,9.85,46.79
-0.14,0.352,2.384,2.58,72.0,9.85,46.72
-0.075,0.331,2.384,2.58,72.0,9.85,46.68
-0.134,0.311,2.384,2.58,72.0,9.85,46.66
-0.159,0.352,2.384,2.58,72.0,9.85,46.66
0.246,0.58,2.384,2.58,72.0,9.85,46.59
-0.069,0.352,2.384,2.58,72.0,9.85,46.47
0.009,0.352,2.384,2.58,72.0,9.85,46.42
0.157,0.352,2.384,2.58,72.0,9.85,46.38
0.226,0.331,2.384,2.58,72.0,9.85,46.36
-0.065,0.331,2.384,2.58,72.0,9.85,46.3
-0.103,0.331,2.384,2.58,73.0,9.85,46.21
-0.087,0.331,2.384,2.58,73.0,9.85,46.04
-0.086,0.331,2.384,2.58,73.0,9.85,45.79
-0.084,0.311,2.384,2.58,73.0,9.85,45.6
-0.035,0.311,2.384,2.58,73.0,9.85,45.45
-0.06,0.352,2.384,2.58,73.0,9.85,45.35
-0.104,0.331,2.384,2.58,73.0,9.85,45.26
0.319,0.601,2.382,2.58,73.0,9.85,45.09
-0.083,0.414,2.382,2.58,73.0,9.85,44.91
0.037,0.352,2.383,2.58,73.0,9.85,44.77
0.162,0.352,2.382,2.58,73.0,9.85,44.65
0.318,0.331,2.382,2.58,73.0,9.85,44.54
0.047,0.331,2.382,2.58,73.0,9.85,44.41
-0.059,0.352,2.382,2.58,70.0,9.85,44.27
-0.054,0.311,2.382,2.58,70.0,9.85,44.11
-0.054,0.311,2.382,2.58,70.0,9.85,43.83
-0.059,0.331,2.382,2.58,70.0,9.85,43.64
-0.061,0.311,2.382,2.58,70.0,9.85,43.55
-0.003,0.311,2.382,2.58,70.0,9.85,43.5
-0.075,0.331,2.382,2.58,70.0,9.85,43.47
-0.084,0.352,2.382,2.58,70.0,9.85,43.48
0.271,0.663,2.382,2.58,70.0,9.85,43.44
-0.002,0.311,2.382,2.579,70.0,9.85,43.44
0.066,0.352,2.382,2.578,70.0,9.85,43.47
0.222,0.373,2.382,2.578,70.0,9.85,43.49
0.264,0.331,2.382,2.578,70.0,9.86,43.5
-0.041,0.352,2.382,2.578,70.0,9.85,43.49
-0.085,0.352,2.382,2.578,67.0,9.85,43.49
-0.079,0.331,2.382,2.58,67.0,9.85,43.42
-0.09,0.311,2.382,2.578,67.0,9.85,43.29
-0.099,0.331,2.382,2.578,67.0,9.85,43.25
-0.107,0.331,2.382,2.578,67.0,9.85,43.36
-0.056,0.331,2.382,2.578,67.0,9.85,43.54
-0.125,0.352,2.379,2.578,67.0,9.86,43.73
-0.153,0.331,2.379,2.578,67.0,9.85,43.87
0.217,0.601,2.379,2.578,67.0,9.85,44.04
-0.08,0.394,2.379,2.578,67.0,9.85,44.27
-0.012,0.331,2.379,2.578,67.0,9.86,44.52
0.128,0.331,2.379,2.578,66.0,9.85,44.77
0.21,0.352,2.379,2.578,66.0,9.85,44.98
-0.101,0.352,2.379,2.578,66.0,9.85,45.16
-0.154,0.352,2.379,2.578,66.0,9.85,45.36
-0.142,0.352,2.379,2.578,66.0,9.85,45.49
-0.144,0.331,2.379,2.578,66.0,9.85,45.55
-0.144,0.414,2.379,2.578,66.0,9.85,45.71
-0.113,0.373,2.379,2.578,66.0,9.86,45.9
-0.118,0.331,2.379,2.578,66.0,9.85,46.15
-0.171,0.331,2.379,2.578,66.0,9.85,46.37
0.251,0.435,2.378,2.578,66.0,9.85,46.49
-0.155,0.497,2.378,2.578,66.0,9.85,46.59
-0.053,0.331,2.378,2.578,66.0,9.86,46.74
0.057,0.352,2.378,2.578,68.0,9.85,46.92
0.228,0.352,2.379,2.578,68.0,9.85,47.07
0.003,0.331,2.378,2.578,68.0,9.85,47.16
-0.149,0.29,2.377,2.578,68.0,9.85,47.18
-0.14,0.331,2.377,2.578,68.0,9.86,47.19
-0.137,0.331,2.377,2.578,68.0,9.85,47.07
-0.135,0.352,2.377,2.578,68.0,9.86,46.96
-0.12,0.352,2.377,2.578,68.0,9.85,46.92
-0.072,0.331,2.377,2.578,68.0,9.85,46.91
-0.145,0.331,2.377,2.578,68.0,9.85,46.91
-0.031,0.394,2.377,2.578,68.0,9.86,46.83
0.157,0.622,2.377,2.578,68.0,9.85,46.71
-0.04,0.311,2.377,2.578,68.0,9.86,46.63
0.049,0.311,2.377,2.578,68.0,9.86,46.57
0.22,0.352,2.377,2.578,68.0,9.86,46.52
0.152,0.331,2.377,2.578,68.0,9.86,46.44
-0.096,0.331,2.377,2.578,70.0,9.86,46.3
-0.097,0.331,2.377,2.578,70.0,9.86,46.15
-0.08,0.352,2.377,2.578,70.0,9.86,45.89
-0.077,0.331,2.377,2.578,70.0,9.86,45.59
-0.073,0.331,2.377,2.578,70.0,9.86,45.37
-0.06,0.311,2.377,2.576,70.0,9.86,45.19
-0.005,0.331,2.377,2.578,70.0,9.86,45.07
-0.076,0.331,2.377,2.576,70.0,9.86,44.94
0.008,0.394,2.377,2.576,70.0,9.86,44.76
0.229,0.642,2.377,2.576,70.0,9.86,44.58
0.026,0.331,2.377,2.576,70.0,9.86,44.46
0.115,0.352,2.377,2.578,70.0,9.86,44.33
0.29,0.331,2.377,2.575,70.0,9.86,44.23
0.25,0.29,2.377,2.575,70.0,9.86,44.11
-0.023,0.331,2.377,2.575,70.0,9.86,43.98
-0.036,0.311,2.377,2.576,66.0,9.86,43.86
-0.028,0.331,2.377,2.576,66.0,9.86,43.67
-0.033,0.311,2.377,2.576,66.0,9.86,43.46
-0.037,0.331,2.377,2.578,66.0,9.86,43.38
-0.033,0.352,2.377,2.575,66.0,9.86,43.34
0.02,0.331,2.377,2.575,66.0,9.86,43.35
-0.053,0.352,2.377,2.575,66.0,9.86,43.37
-0.016,0.373,2.377,2.576,66.0,9.86,43.33
0.267,0.663,2.377,2.575,66.0,9.86,43.33
0.031,0.373,2.377,2.575,66.0,9.86,43.36
0.114,0.331,2.377,2.575,66.0,9.86,43.4
0.282,0.331,2.377,2.575,66.0,9.86,43.41
0.275,0.331,2.377,2.575,66.0,9.86,43.41
-0.015,0.373,2.377,2.575,66.0,9.86,43.41
-0.038,0.352,2.377,2.575,65.0,9.86,43.41
-0.027,0.352,2.377,2.575,65.0,9.86,43.35
-0.032,0.352,2.375,2.575,65.0,9.86,43.24
-0.037,0.331,2.374,2.575,65.0,9.86,43.22
-0.031,0.29,2.374,2.575,65.0,9.86,43.23
0.022,0.331,2.374,2.575,65.0,9.86,43.25
-0.052,0.331,2.374,2.575,65.0,9.86,43.28
-0.01,0.352,2.374,2.575,65.0,9.86,43.27
0.262,0.622,2.374,2.575,65.0,9.86,43.28
0.029,0.373,2.374,2.575,65.0,9.86,43.33
0.104,0.29,2.374,2.575,65.0,9.86,43.36
0.267,0.331,2.374,2.575,65.0,9.86,43.38
0.253,0.311,2.374,2.575,65.0,9.86,43.4
-0.043,0.352,2.374,2.575,65.0,9.86,43.51
-0.072,0.352,2.374,2.575,66.0,9.86,43.67
-0.064,0.331,2.374,2.575,66.0,9.86,43.77
-0.068,0.311,2.374,2.575,66.0,9.86,43.84
-0.071,0.331,2.373,2.575,66.0,9.86,44.04
-0.038,0.331,2.373,2.575,66.0,9.86,44.28
-0.052,0.352,2.372,2.575,66.0,9.86,44.57
-0.103,0.373,2.372,2.575,66.0,9.86,44.83
0.317,0.58,2.372,2.575,66.0,9.86,44.99
-0.1,0.435,2.372,2.575,66.0,9.86,45.19
0.016,0.331,2.372,2.575,66.0,9.86,45.43
0.132,0.331,2.372,2.575,66.0,9.86,45.71
0.293,0.331,2.372,2.575,66.0,9.86,45.98
0.023,0.331,2.372,2.575,66.0,9.86,46.18
-0.102,0.331,2.372,2.575,68.0,9.86,46.37
-0.094,0.331,2.372,2.575,68.0,9.86,46.56
-0.095,0.311,2.372,2.575,68.0,9.86,46.61
-0.09,0.331,2.372,2.575,68.0,9.88,46.69
-0.038,0.311,2.372,2.575,68.0,9.86,46.85
-0.12,0.352,2.372,2.575,68.0,9.86,46.99
-0.079,0.352,2.372,2.575,68.0,9.86,47.12
0.222,0.58,2.372,2.574,68.0,9.86,47.12
-0.039,0.29,2.372,2.574,68.0,9.86,47.09
0.04,0.352,2.372,2.575,68.0,9.86,47.08
0.204,0.331,2.372,2.574,74.0,9.88,47.11
0.168,0.331,2.372,2.575,74.0,9.86,47.14
-0.104,0.311,2.372,2.575,74.0,9.86,47.12
-0.118,0.311,2.372,2.574,74.0,9.86,47.09
-0.11,0.352,2.37,2.575,74.0,9.88,46.95
-0.11,0.331,2.369,2.575,74.0,9.86,46.76
-0.087,0.331,2.369,2.575,74.0,9.86,46.65
-0.054,0.373,2.369,2.574,74.0,9.88,46.59
-0.126,0.331,2.369,2.574,74.0,9.86,46.56
0.212,0.497,2.369,2.573,74.0,9.86,46.5
-0.034,0.456,2.369,2.574,74.0,9.86,46.31
-0.009,0.331,2.369,2.573,74.0,9.88,46.15
0.096,0.331,2.369,2.575,74.0,9.86,46.01
0.278,0.331,2.369,2.573,74.0,9.86,45.89
0.108,0.311,2.369,2.574,74.0,9.86,45.73
-0.075,0.311,2.369,2.573,73.0,9.86,45.54
-0.064,0.331,2.369,2.574,73.0,9.86,45.34
-0.055,0.311,2.369,2.573,73.0,9.86,45.03
-0.057,0.331,2.369,2.573,73.0,9.88,44.74
-0.055,0.311,2.369,2.573,73.0,9.88,44.56
0.004,0.352,2.368,2.573,73.0,9.86,44.42
-0.042,0.311,2.367,2.575,73.0,9.86,44.33
-0.073,0.394,2.367,2.573,73.0,9.86,44.22
0.313,0.601,2.367,2.573,73.0,9.86,44.05
-0.007,0.373,2.367,2.573,73.0,9.88,43.93
0.072,0.331,2.367,2.573,73.0,9.86,43.87
0.207,0.331,2.367,2.573,73.0,9.86,43.81
0.336,0.331,2.367,2.573,73.0,9.88,43.77
0.035,0.331,2.367,2.573,73.0,9.88,43.71
-0.047,0.331,2.367,2.573,68.0,9.86,43.67
-0.038,0.352,2.367,2.573,68.0,9.88,43.58
-0.044,0.373,2.367,2.573,68.0,9.88,43.41
-0.052,0.331,2.367,2.573,68.0,9.88,43.32
-0.059,0.352,2.367,2.573,68.0,9.88,43.32
-0.047,0.311,2.367,2.573,68.0,9.88,43.33
-0.005,0.352,2.367,2.573,68.0,9.88,43.37
-0.08,0.331,2.367,2.573,68.0,9.88,43.35
0.105,0.456,2.367,2.573,68.0,9.88,43.34
0.106,0.663,2.367,2.573,68.0,9.88,43.38
0.012,0.373,2.367,2.573,68.0,9.88,43.42
0.099,0.331,2.367,2.573,68.0,9.88,43.44
0.278,0.373,2.367,2.573,68.0,9.88,43.45
0.188,0.331,2.367,2.573,68.0,9.88,43.45
-0.069,0.352,2.367,2.573,64.0,9.88,43.45
-0.082,0.311,2.367,2.573,64.0,9.88,43.44
-0.086,0.331,2.367,2.573,64.0,9.88,43.37
-0.1,0.331,2.367,2.573,64.0,9.88,43.33
-0.113,0.331,2.367,2.573,64.0,9.88,43.44
-0.107,0.311,2.367,2.573,64.0,9.88,43.57
-0.082,0.331,2.364,2.573,64.0,9.88,43.76
-0.161,0.311,2.364,2.573,64.0,9.88,43.94
0.125,0.518,2.364,2.571,64.0,9.88,44.09
-0.075,0.497,2.364,2.573,64.0,9.88,44.28
-0.079,0.373,2.364,2.573,64.0,9.88,44.5
0.009,0.352,2.364,2.573,66.0,9.88,44.73
0.184,0.311,2.364,2.573,66.0,9.88,44.98
0.04,0.311,2.364,2.573,66.0,9.88,45.19
-0.181,0.352,2.364,2.573,66.0,9.88,45.37
-0.182,0.331,2.364,2.573,66.0,9.88,45.55
-0.179,0.352,2.364,2.571,66.0,9.88,45.61
-0.18,0.352,2.364,2.573,66.0,9.88,45.68
-0.158,0.352,2.364,2.57,66.0,9.88,45.87
-0.149,0.311,2.364,2.571,66.0,9.88,46.09
-0.216,0.331,2.364,2.571,66.0,9.88,46.33
0.203,0.497,2.364,2.571,66.0,9.88,46.51
-0.208,0.477,2.364,2.57,66.0,9.88,46.6
-0.104,0.373,2.362,2.573,66.0,9.88,46.75
0.004,0.352,2.362,2.573,72.0,9.88,46.95
0.172,0.311,2.363,2.57,72.0,9.88,47.14
-0.046,0.352,2.362,2.573,72.0,9.88,47.27
-0.198,0.331,2.362,2.571,72.0,9.88,47.34
-0.19,0.373,2.362,2.571,72.0,9.88,47.39
-0.189,0.331,2.362,2.57,72.0,9.88,47.29
-0.176,0.331,2.362,2.57,72.0,9.88,47.2
-0.12,0.352,2.362,2.57,72.0,9.88,47.16
-0.197,0.331,2.362,2.571,72.0,9.88,47.13
-0.111,0.352,2.362,2.57,72.0,9.88,47.13
0.129,0.559,2.362,2.57,72.0,9.88,47.03
-0.1,0.331,2.362,2.57,72.0,9.88,46.89
-0.01,0.331,2.362,2.57,72.0,9.88,46.8
0.158,0.311,2.362,2.57,75.0,9.88,46.74
0.107,0.331,2.362,2.57,75.0,9.88,46.67
-0.139,0.352,2.362,2.57,75.0,9.88,46.52
-0.138,0.331,2.362,2.57,75.0,9.88,46.36
-0.121,0.331,2.36,2.57,75.0,9.88,46.07
-0.118,0.311,2.36,2.57,75.0,9.88,45.74
-0.106,0.331,2.359,2.57,75.0,9.88,45.46
-0.039,0.373,2.359,2.57,75.0,9.88,45.22
-0.113,0.331,2.359,2.57,75.0,9.88,45.04
-0.079,0.435,2.359,2.57,75.0,9.88,44.84
0.237,0.601,2.359,2.57,75.0,9.88,44.65
-0.013,0.352,2.359,2.57,75.0,9.88,44.47
0.072,0.311,2.359,2.57,75.0,9.88,44.34
0.243,0.331,2.359,2.57,75.0,9.88,44.2
0.247,0.311,2.359,2.57,75.0,9.88,44.08
-0.034,0.331,2.359,2.57,75.0,9.88,43.96
-0.054,0.331,2.359,2.57,70.0,9.89,43.85
-0.045,0.352,2.359,2.57,70.0,9.9,43.66
-0.051,0.331,2.359,2.57,70.0,9.9,43.44
-0.052,0.331,2.359,2.57,70.0,9.9,43.36
0.0,0.373,2.359,2.57,70.0,9.9,43.31
-0.039,0.311,2.359,2.57,70.0,9.89,43.33
-0.074,0.331,2.359,2.57,70.0,9.89,43.35
0.318,0.601,2.359,2.57,70.0,9.88,43.32
-0.021,0.352,2.359,2.57,70.0,9.88,43.31
0.073,0.352,2.359,2.57,70.0,9.88,43.34
0.205,0.331,2.358,2.57,70.0,9.88,43.38
0.344,0.352,2.357,2.57,70.0,9.88,43.39
0.053,0.352,2.357,2.57,70.0,9.88,43.39
-0.036,0.352,2.357,2.57,69.0,9.88,43.39
-0.025,0.373,2.357,2.57,69.0,9.88,43.36
-0.028,0.352,2.357,2.57,69.0,9.88,43.25
-0.033,0.352,2.357,2.57,69.0,9.88,43.18
-0.038,0.311,2.357,2.57,69.0,9.88,43.18
0.017,0.352,2.357,2.57,69.0,9.88,43.21
-0.037,0.331,2.357,2.569,69.0,9.88,43.26
-0.063,0.373,2.357,2.568,69.0,9.88,43.25
0.301,0.684,2.357,2.568,69.0,9.88,43.25
0.009,0.352,2.357,2.569,69.0,9.88,43.27
0.071,0.311,2.357,2.568,69.0,9.88,43.31
0.201,0.352,2.357,2.568,69.0,9.88,43.33
0.295,0.331,2.357,2.57,69.0,9.88,43.34
-0.016,0.331,2.355,2.57,69.0,9.88,43.42
-0.085,0.331,2.357,2.568,67.0,9.88,43.63
-0.078,0.352,2.355,2.569,67.0,9.88,43.82
-0.082,0.311,2.354,2.569,67.0,9.88,43.97
-0.079,0.311,2.354,2.569,67.0,9.88,44.2
-0.028,0.311,2.354,2.569,67.0,9.88,44.49
-0.112,0.352,2.354,2.568,67.0,9.88,44.81
-0.098,0.352,2.354,2.568,67.0,9.88,45.12
0.225,0.58,2.354,2.568,67.0,9.88,45.32
-0.042,0.352,2.354,2.568,67.0,9.88,45.5
0.03,0.311,2.354,2.568,67.0,9.88,45.74
0.187,0.331,2.354,2.568,67.0,9.88,46.02
0.185,0.331,2.354,2.568,67.0,9.88,46.31
-0.107,0.331,2.354,2.568,72.0,9.88,46.51
-0.128,0.331,2.354,2.568,72.0,9.88,46.71
-0.124,0.352,2.354,2.568,72.0,9.88,46.83
-0.126,0.331,2.354,2.568,72.0,9.88,46.91
-0.081,0.311,2.354,2.568,72.0,9.88,47.08
-0.116,0.311,2.354,2.568,72.0,9.88,47.28
0.275,0.601,2.354,2.568,72.0,9.88,47.5
0.246,0.58,2.354,2.568,72.0,9.88,47.63
-0.132,0.394,2.354,2.568,72.0,9.88,47.6
-0.031,0.352,2.354,2.568,75.0,9.88,47.58
0.095,0.331,2.354,2.568,75.0,9.88,47.61
0.225,0.311,2.353,2.568,75.0,9.88,47.66
-0.064,0.352,2.353,2.568,75.0,9.88,47.66
-0.147,0.311,2.352,2.568,75.0,9.88,47.64
-0.139,0.311,2.352,2.568,75.0,9.88,47.57
-0.145,0.311,2.352,2.568,75.0,9.88,47.4
-0.13,0.331,2.352,2.568,75.0,9.88,47.26
-0.082,0.331,2.352,2.568,75.0,9.88,47.18
-0.159,0.352,2.352,2.568,75.0,9.88,47.15
0.035,0.456,2.352,2.568,75.0,9.88,47.11
0.074,0.559,2.352,2.568,75.0,9.88,46.96
-0.048,0.352,2.352,2.568,75.0,9.88,46.77
0.05,0.331,2.352,2.568,75.0,9.88,46.63
0.227,0.331,2.352,2.567,75.0,9.88,46.52
0.123,0.331,2.352,2.568,75.0,9.88,46.36
-0.092,0.29,2.352,2.568,75.0,9.88,46.16
-0.082,0.352,2.349,2.568,75.0,9.88,45.96
-0.072,0.331,2.35,2.568,75.0,9.88,45.65
-0.071,0.311,2.35,2.567,75.0,9.88,45.33
-0.068,0.331,2.349,2.566,75.0,9.88,45.09
-0.013,0.352,2.349,2.567,75.0,9.88,44.88
-0.053,0.331,2.349,2.566,75.0,9.88,44.74
-0.084,0.352,2.349,2.566,75.0,9.89,44.6
0.304,0.642,2.349,2.567,75.0,9.89,44.4
-0.011,0.394,2.349,2.566,75.0,9.89,44.24
0.068,0.352,2.349,2.567,75.0,9.88,44.12
0.209,0.352,2.349,2.567,75.0,9.89,44.0
0.333,0.311,2.349,2.568,75.0,9.89,43.9
0.034,0.352,2.349,2.566,75.0,9.89,43.8
-0.041,0.311,2.349,2.566,68.0,9.89,43.72
-0.031,0.311,2.349,2.566,68.0,9.89,43.61
-0.034,0.331,2.349,2.566,68.0,9.89,43.4
-0.045,0.331,2.349,2.566,68.0,9.89,43.28
-0.05,0.311,2.349,2.566,68.0,9.89,43.27
-0.003,0.373,2.348,2.566,68.0,9.89,43.28
-0.085,0.331,2.347,2.566,68.0,9.89,43.3
-0.086,0.373,2.347,2.566,68.0,9.89,43.29
0.242,0.642,2.348,2.566,68.0,9.89,43.39
-0.031,0.311,2.347,2.566,68.0,9.89,43.59
0.038,0.352,2.347,2.566,68.0,9.89,43.83
0.19,0.373,2.347,2.566,68.0,9.89,44.1
0.207,0.331,2.347,2.566,68.0,9.89,44.34
-0.1,0.352,2.347,2.566,68.0,9.89,44.52
-0.132,0.352,2.347,2.566,67.0,9.89,44.71
-0.126,0.331,2.347,2.566,67.0,9.89,44.83
-0.13,0.352,2.347,2.566,67.0,9.89,44.93
-0.121,0.331,2.347,2.566,67.0,9.89,45.14
-0.073,0.352,2.347,2.566,67.0,9.89,45.37
-0.154,0.352,2.347,2.566,67.0,9.89,45.66
-0.118,0.352,2.347,2.566,67.0,9.89,45.88
0.19,0.58,2.347,2.566,67.0,9.89,46.0
-0.072,0.352,2.345,2.566,67.0,9.89,46.15
0.006,0.331,2.345,2.566,67.0,9.89,46.37
0.169,0.331,2.344,2.566,71.0,9.89,46.64
0.15,0.311,2.345,2.566,71.0,9.89,46.88
-0.131,0.331,2.345,2.566,71.0,9.89,47.07
-0.145,0.331,2.347,2.566,71.0,9.89,47.24
-0.14,0.352,2.344,2.566,71.0,9.89,47.28
-0.136,0.352,2.345,2.566,71.0,9.89,47.24
-0.081,0.352,2.345,2.566,71.0,9.88,47.25
-0.13,0.352,2.344,2.566,71.0,9.88,47.26
-0.165,0.331,2.345,2.566,71.0,9.88,47.3
0.26,0.559,2.345,2.566,71.0,9.88,47.23
-0.111,0.352,2.344,2.566,71.0,9.88,47.22
-0.017,0.311,2.344,2.566,71.0,9.88,47.17
0.119,0.352,2.344,2.564,75.0,9.88,47.19
0.229,0.331,2.344,2.566,75.0,9.88,47.21
-0.067,0.352,2.344,2.566,75.0,9.88,47.2
-0.13,0.331,2.344,2.566,75.0,9.88,47.2
-0.116,0.352,2.344,2.563,75.0,9.88,47.11
-0.114,0.29,2.344,2.563,75.0,9.88,46.93
-0.1,0.394,2.342,2.564,75.0,9.89,46.79
-0.037,0.331,2.343,2.563,75.0,9.89,46.72
-0.109,0.331,2.343,2.563,75.0,9.88,46.69
-0.082,0.352,2.343,2.563,75.0,9.89,46.64
0.261,0.622,2.342,2.563,75.0,9.89,46.49
-0.014,0.331,2.342,2.563,75.0,9.88,46.33
0.072,0.311,2.342,2.563,75.0,9.88,46.2
0.238,0.29,2.342,2.563,75.0,9.89,46.09
0.234,0.331,2.342,2.563,75.0,9.89,45.95
-0.039,0.331,2.342,2.563,75.0,9.88,45.78
-0.051,0.352,2.342,2.563,72.0,9.89,45.61
-0.035,0.352,2.342,2.563,72.0,9.88,45.34
-0.036,0.311,2.342,2.563,72.0,9.89,45.01
-0.034,0.331,2.342,2.563,72.0,9.89,44.77
0.02,0.352,2.342,2.563,72.0,9.89,44.58
-0.008,0.331,2.342,2.563,72.0,9.89,44.46
-0.048,0.352,2.342,2.563,72.0,9.89,44.35
0.349,0.684,2.34,2.563,72.0,9.89,44.17
0.001,0.414,2.339,2.563,72.0,9.89,44.04
0.098,0.331,2.339,2.563,72.0,9.89,43.94
0.229,0.331,2.34,2.563,72.0,9.89,43.88
0.365,0.331,2.34,2.563,72.0,9.89,43.81
0.077,0.331,2.339,2.563,72.0,9.89,43.74
-0.013,0.352,2.339,2.563,69.0,9.88,43.69
0.0,0.331,2.339,2.563,69.0,9.89,43.6
-0.001,0.311,2.339,2.563,69.0,9.89,43.42
-0.005,0.331,2.339,2.563,69.0,9.89,43.33
0.013,0.352,2.339,2.563,69.0,9.9,43.3
0.008,0.352,2.339,2.563,69.0,9.9,43.31
-0.034,0.373,2.339,2.563,69.0,9.9,43.35
0.346,0.518,2.339,2.562,69.0,9.91,43.33
-0.017,0.539,2.339,2.561,69.0,9.93,43.33
0.076,0.352,2.339,2.562,69.0,9.93,43.4
0.177,0.373,2.339,2.562,69.0,9.94,43.4
0.349,0.352,2.339,2.562,69.0,9.93,43.42
0.156,0.373,2.339,2.563,69.0,9.94,43.43
-0.025,0.352,2.339,2.562,70.0,9.93,43.43
-0.022,0.331,2.339,2.563,70.0,9.93,43.42
-0.022,0.352,2.339,2.563,70.0,9.94,43.33
-0.029,0.311,2.339,2.561,70.0,9.94,43.25
-0.032,0.331,2.339,2.561,70.0,9.94,43.26
0.014,0.373,2.339,2.561,70.0,9.94,43.28
-0.021,0.331,2.339,2.561,70.0,9.94,43.33
-0.059,0.331,2.337,2.561,70.0,9.94,43.34
0.318,0.622,2.338,2.561,70.0,9.94,43.33
-0.026,0.394,2.337,2.561,70.0,9.94,43.35
0.073,0.352,2.339,2.562,70.0,9.94,43.39
0.199,0.373,2.337,2.561,70.0,9.94,43.42
0.338,0.352,2.337,2.561,70.0,9.94,43.43
0.057,0.352,2.337,2.561,70.0,9.95,43.43
-0.04,0.311,2.337,2.561,67.0,9.95,43.43
-0.035,0.352,2.337,2.561,67.0,9.94,43.4
-0.042,0.29,2.337,2.561,67.0,9.95,43.29
-0.054,0.352,2.337,2.561,67.0,9.95,43.23
-0.035,0.331,2.337,2.561,67.0,9.95,43.26
-0.034,0.311,2.337,2.561,67.0,9.95,43.38
-0.104,0.352,2.337,2.561,67.0,9.95,43.56
0.288,0.497,2.337,2.561,67.0,9.95,43.72
-0.113,0.497,2.337,2.561,67.0,9.95,43.89
-0.003,0.373,2.337,2.561,67.0,9.95,44.14
0.095,0.331,2.337,2.561,70.0,9.94,44.39
0.261,0.331,2.337,2.561,70.0,9.95,44.67
0.053,0.352,2.337,2.561,70.0,9.94,44.9
-0.113,0.373,2.337,2.561,70.0,9.94,45.12
-0.106,0.311,2.337,2.561,70.0,9.94,45.3
-0.108,0.352,2.337,2.561,70.0,9.94,45.37
-0.109,0.352,2.337,2.561,70.0,9.94,45.49
-0.051,0.331,2.337,2.561,70.0,9.95,45.67
-0.119,0.352,2.337,2.559,70.0,9.95,45.88
-0.152,0.394,2.337,2.558,70.0,9.95,46.11
0.242,0.559,2.337,2.561,70.0,9.95,46.25
-0.072,0.352,2.337,2.558,70.0,9.95,46.33
-0.002,0.331,2.335,2.561,70.0,9.94,46.47
0.137,0.352,2.337,2.561,74.0,9.94,46.68
0.201,0.331,2.337,2.559,74.0,9.94,46.9
-0.109,0.331,2.337,2.558,74.0,9.94,47.05
-0.135,0.311,2.337,2.559,74.0,9.94,47.17
-0.133,0.394,2.337,2.561,74.0,9.94,47.2
-0.136,0.311,2.337,2.559,74.0,9.94,47.14
-0.078,0.331,2.337,2.559,74.0,9.94,47.16
-0.134,0.352,2.337,2.558,74.0,9.94,47.35
-0.168,0.331,2.337,2.558,74.0,9.94,47.37
0.247,0.622,2.335,2.558,74.0,9.93,47.44
-0.109,0.352,2.337,2.558,74.0,9.93,47.4
-0.026,0.352,2.337,2.558,74.0,9.91,47.41
0.111,0.352,2.337,2.558,76.0,9.91,47.49
0.207,0.331,2.335,2.558,76.0,9.91,47.56
-0.093,0.311,2.337,2.558,76.0,9.9,47.56
-0.148,0.352,2.335,2.558,76.0,9.9,47.57
-0.14,0.331,2.334,2.558,76.0,9.9,47.51
-0.142,0.373,2.334,2.558,76.0,9.9,47.38
-0.113,0.331,2.334,2.558,76.0,9.9,47.32
-0.098,0.373,2.334,2.558,76.0,9.9,47.31
-0.162,0.311,2.334,2.558,76.0,9.9,47.32
0.268,0.497,2.334,2.558,76.0,9.9,47.32
-0.134,0.497,2.334,2.558,76.0,9.9,47.25
-0.035,0.331,2.334,2.558,76.0,9.9,47.2
0.075,0.352,2.334,2.558,75.0,9.9,47.15
0.246,0.352,2.334,2.558,75.0,9.9,47.11
0.038,0.311,2.334,2.558,75.0,9.9,47.02
-0.113,0.29,2.334,2.558,75.0,9.9,46.88
-0.097,0.311,2.334,2.558,75.0,9.9,46.69
-0.091,0.331,2.334,2.558,75.0,9.9,46.38
-0.091,0.311,2.334,2.558,75.0,9.9,46.06
-0.08,0.352,2.334,2.558,75.0,9.9,45.83
-0.023,0.331,2.333,2.557,75.0,9.91,45.64
-0.098,0.331,2.333,2.556,75.0,9.9,45.52
-0.009,0.394,2.332,2.558,75.0,9.9,45.33
0.204,0.58,2.332,2.557,75.0,9.9,45.13
-0.006,0.311,2.332,2.558,75.0,9.9,44.97
0.079,0.352,2.332,2.556,75.0,9.9,44.84
0.254,0.373,2.332,2.556,75.0,9.9,44.71
0.206,0.352,2.332,2.556,75.0,9.9,44.58
-0.061,0.373,2.332,2.556,70.0,9.9,44.42
-0.07,0.373,2.332,2.556,70.0,9.9,44.27
-0.066,0.331,2.332,2.556,70.0,9.91,43.99
-0.071,0.331,2.332,2.556,70.0,9.9,43.74
-0.077,0.331,2.332,2.556,70.0,9.91,43.6
-0.049,0.352,2.332,2.556,70.0,9.91,43.52
-0.05,0.352,2.332,2.556,70.0,9.91,43.51
-0.108,0.331,2.332,2.556,70.0,9.91,43.49
0.309,0.456,2.332,2.556,70.0,9.9,43.44
-0.111,0.559,2.332,2.556,70.0,9.91,43.42
0.01,0.352,2.33,2.556,70.0,9.9,43.44
0.116,0.352,2.329,2.556,70.0,9.91,43.45
0.294,0.311,2.329,2.556,70.0,9.9,43.48
0.079,0.352,2.329,2.556,70.0,9.9,43.48
-0.086,0.352,2.329,2.556,68.0,9.9,43.48
-0.079,0.352,2.329,2.556,68.0,9.9,43.46
-0.078,0.331,2.329,2.556,68.0,9.9,43.34
-0.085,0.331,2.329,2.556,68.0,9.9,43.24
-0.094,0.352,2.329,2.556,68.0,9.91,43.23
-0.088,0.373,2.329,2.556,68.0,9.91,43.25
-0.049,0.331,2.329,2.554,68.0,9.91,43.28
-0.13,0.311,2.329,2.554,68.0,9.91,43.28
0.061,0.414,2.329,2.554,68.0,9.91,43.31
0.04,0.559,2.329,2.556,68.0,9.91,43.44
-0.053,0.352,2.329,2.556,68.0,9.91,43.62
0.025,0.331,2.329,2.556,65.0,9.91,43.82
0.194,0.331,2.327,2.554,65.0,9.9,44.03
0.094,0.352,2.327,2.554,65.0,9.9,44.25
-0.157,0.331,2.327,2.553,65.0,9.9,44.47
-0.164,0.352,2.327,2.553,65.0,9.9,44.69
-0.158,0.331,2.327,2.553,65.0,9.9,44.77
-0.163,0.331,2.327,2.553,65.0,9.9,44.89
-0.158,0.331,2.327,2.554,65.0,9.9,45.11
-0.11,0.352,2.327,2.554,65.0,9.9,45.36
-0.187,0.331,2.327,2.553,65.0,9.9,45.65
-0.142,0.394,2.327,2.553,65.0,9.9,45.84
0.144,0.559,2.327,2.553,65.0,9.9,45.95
-0.107,0.331,2.327,2.553,65.0,9.9,46.11
-0.03,0.352,2.327,2.553,65.0,9.9,46.34
0.134,0.352,2.327,2.553,70.0,9.9,46.6
0.107,0.331,2.327,2.553,70.0,9.91,46.84
-0.172,0.331,2.327,2.553,70.0,9.9,47.01
-0.187,0.352,2.327,2.553,70.0,9.9,47.18
-0.18,0.331,2.327,2.553,70.0,9.91,47.24
-0.182,0.352,2.327,2.553,70.0,9.91,47.24
-0.123,0.311,2.327,2.553,70.0,9.9,47.32
-0.186,0.311,2.327,2.553,70.0,9.9,47.41
-0.212,0.352,2.325,2.553,70.0,9.9,47.55
0.202,0.559,2.325,2.553,70.0,9.9,47.59
-0.126,0.414,2.327,2.553,70.0,9.9,47.53
-0.049,0.373,2.324,2.553,70.0,9.9,47.53
0.097,0.352,2.324,2.553,76.0,9.91,47.59
0.165,0.352,2.324,2.553,76.0,9.9,47.66
-0.141,0.331,2.324,2.553,76.0,9.9,47.68
-0.179,0.352,2.324,2.553,76.0,9.9,47.67
-0.17,0.311,2.324,2.553,76.0,9.91,47.6
-0.169,0.331,2.324,2.553,76.0,9.91,47.43
-0.111,0.352,2.324,2.553,76.0,9.91,47.33
-0.149,0.311,2.324,2.552,76.0,9.91,47.26
-0.181,0.352,2.324,2.552,76.0,9.91,47.25
-0.091,0.331,2.324,2.551,76.0,9.91,47.19
-0.076,0.331,2.324,2.551,76.0,9.91,47.05
-0.021,0.373,2.324,2.551,76.0,9.91,46.92
0.116,0.331,2.324,2.551,76.0,9.91,46.83
0.23,0.331,2.324,2.551,76.0,9.91,46.74
-0.068,0.331,2.323,2.552,76.0,9.91,46.45
-0.129,0.311,2.324,2.551,76.0,9.91,46.43
-0.107,0.373,2.324,2.551,76.0,9.91,46.23
-0.102,0.352,2.324,2.551,76.0,9.91,45.92
-0.097,0.331,2.324,2.551,76.0,9.91,45.65
-0.026,0.331,2.324,2.551,76.0,9.91,45.45
-0.091,0.311,2.324,2.551,76.0,9.91,45.31
-0.105,0.414,2.324,2.551,76.0,9.91,45.22
0.287,0.642,2.324,2.551,76.0,9.91,45.04
-0.009,0.352,2.322,2.551,76.0,9.91,44.84
0.064,0.331,2.322,2.551,76.0,9.91,44.73
0.221,0.352,2.322,2.551,76.0,9.91,44.63
0.277,0.373,2.322,2.551,76.0,9.91,44.54
-0.021,0.311,2.322,2.551,76.0,9.91,44.39
-0.055,0.331,2.322,2.551,76.0,9.91,44.24
-0.043,0.331,2.322,2.551,76.0,9.91,44.02
-0.048,0.331,2.322,2.551,76.0,9.91,43.74
-0.05,0.352,2.322,2.551,76.0,9.91,43.59
0.008,0.352,2.322,2.551,76.0,9.91,43.52
-0.045,0.352,2.322,2.551,76.0,9.91,43.48
-0.074,0.311,2.322,2.551,76.0,9.91,43.48
0.299,0.684,2.322,2.551,76.0,9.91,43.43
0.003,0.373,2.322,2.551,76.0,9.91,43.42
0.077,0.352,2.322,2.549,76.0,9.91,43.44
0.217,0.311,2.322,2.549,76.0,9.91,43.46
0.327,0.311,2.322,2.551,76.0,9.91,43.49
0.018,0.331,2.322,2.549,76.0,9.91,43.48
-0.055,0.311,2.322,2.551,70.0,9.91,43.49
-0.054,0.331,2.322,2.548,70.0,9.91,43.43
-0.068,0.352,2.322,2.548,70.0,9.91,43.31
-0.074,0.311,2.322,2.548,70.0,9.91,43.26
-0.02,0.331,2.322,2.548,70.0,9.91,43.38
-0.089,0.373,2.322,2.548,70.0,9.91,43.65
-0.123,0.311,2.322,2.548,70.0,9.91,43.94
0.258,0.622,2.322,2.548,70.0,9.91,44.19
-0.048,0.394,2.322,2.548,70.0,9.91,44.44
0.019,0.331,2.322,2.548,70.0,9.91,44.72
0.162,0.352,2.319,2.548,70.0,9.91,45.01
0.237,0.331,2.32,2.548,70.0,9.91,45.3
-0.071,0.29,2.319,2.548,70.0,9.91,45.52
-0.12,0.331,2.319,2.548,72.0,9.91,45.77
-0.113,0.331,2.319,2.548,72.0,9.91,45.93
-0.117,0.352,2.319,2.548,72.0,9.91,46.04
-0.084,0.331,2.32,2.548,72.0,9.91,46.24
-0.101,0.331,2.319,2.548,72.0,9.91,46.47
-0.159,0.331,2.319,2.548,72.0,9.91,46.76
0.282,0.539,2.319,2.548,72.0,9.91,47.01
-0.161,0.414,2.319,2.548,72.0,9.91,47.12
-0.044,0.373,2.319,2.548,72.0,9.91,47.23
0.071,0.373,2.319,2.548,75.0,9.91,47.42
0.224,0.352,2.319,2.548,75.0,9.91,47.56
-0.033,0.352,2.319,2.548,75.0,9.91,47.61
-0.149,0.311,2.319,2.548,75.0,9.91,47.6
-0.138,0.331,2.319,2.548,75.0,9.91,47.56
-0.141,0.331,2.319,2.548,75.0,9.91,47.37
-0.115,0.331,2.318,2.548,75.0,9.91,47.22
-0.095,0.352,2.317,2.548,75.0,9.91,47.12
-0.161,0.331,2.318,2.546,75.0,9.91,47.08
-0.149,0.373,2.318,2.548,75.0,9.91,47.04
-0.128,0.352,2.317,2.548,75.0,9.91,46.89
-0.037,0.352,2.317,2.547,75.0,9.91,46.72
0.071,0.352,2.317,2.547,75.0,9.91,46.58
0.244,0.331,2.317,2.546,75.0,9.91,46.5
0.038,0.352,2.315,2.546,75.0,9.91,46.21
-0.114,0.352,2.315,2.546,75.0,9.91,46.2
-0.097,0.331,2.317,2.547,75.0,9.91,46.01
-0.086,0.331,2.317,2.546,75.0,9.91,45.68
-0.084,0.331,2.315,2.546,75.0,9.91,45.39
-0.046,0.352,2.317,2.546,75.0,9.91,45.17
-0.036,0.373,2.315,2.546,75.0,9.91,44.99
-0.091,0.331,2.314,2.546,75.0,9.91,44.87
0.345,0.539,2.314,2.546,75.0,9.91,44.7
-0.089,0.601,2.314,2.546,75.0,9.91,44.51
0.04,0.373,2.314,2.546,75.0,9.93,44.36
0.159,0.352,2.314,2.546,75.0,9.91,44.23
0.333,0.331,2.314,2.546,75.0,9.91,44.11
0.101,0.352,2.314,2.546,75.0,9.91,43.98
-0.039,0.352,2.314,2.546,75.0,9.91,43.87
-0.028,0.331,2.314,2.546,75.0,9.91,43.76
-0.027,0.352,2.314,2.546,75.0,9.91,43.56
-0.035,0.331,2.314,2.546,75.0,9.91,43.42
-0.026,0.352,2.314,2.546,75.0,9.91,43.39
0.014,0.352,2.314,2.546,75.0,9.91,43.38
-0.062,0.331,2.314,2.546,75.0,9.93,43.46
0.11,0.456,2.314,2.546,75.0,9.91,43.54
0.159,0.622,2.314,2.546,75.0,9.91,43.63
0.042,0.331,2.314,2.546,75.0,9.91,43.74
0.134,0.29,2.314,2.546,75.0,9.91,43.79
0.307,0.331,2.314,2.546,75.0,9.91,43.83
0.216,0.311,2.314,2.546,75.0,9.91,43.79
-0.02,0.331,2.314,2.546,75.0,9.91,43.77
-0.022,0.352,2.314,2.546,70.0,9.91,43.73
-0.02,0.331,2.314,2.546,70.0,9.93,43.61
-0.027,0.331,2.314,2.544,70.0,9.91,43.46
-0.034,0.331,2.312,2.546,70.0,9.91,43.42
-0.012,0.311,2.312,2.546,70.0,9.91,43.41
0.004,0.373,2.312,2.546,70.0,9.91,43.42
-0.059,0.373,2.312,2.546,70.0,9.91,43.43
0.314,0.497,2.312,2.546,70.0,9.93,43.39
0.028,0.477,2.312,2.546,70.0,9.91,43.41
0.044,0.331,2.312,2.543,70.0,9.91,43.44
0.122,0.331,2.312,2.543,70.0,9.91,43.47
0.29,0.352,2.312,2.543,70.0,9.91,43.57
0.098,0.331,2.312,2.543,70.0,9.91,43.77
-0.095,0.331,2.312,2.543,67.0,9.91,44.28
-0.093,0.311,2.312,2.543,67.0,9.91,44.3
-0.093,0.311,2.312,2.543,67.0,9.93,44.42
-0.099,0.331,2.312,2.543,67.0,9.91,44.6
-0.091,0.311,2.31,2.544,67.0,9.91,44.87
-0.057,0.352,2.312,2.543,67.0,9.91,45.17
-0.138,0.352,2.312,2.543,67.0,9.91,45.49
0.058,0.435,2.312,2.543,67.0,9.91,45.69
0.057,0.518,2.31,2.543,67.0,9.91,45.87
-0.051,0.352,2.31,2.543,67.0,9.91,46.09
0.035,0.352,2.31,2.543,70.0,9.91,46.38
0.204,0.331,2.31,2.543,70.0,9.91,46.68
0.092,0.373,2.31,2.543,70.0,9.91,46.94
-0.141,0.352,2.309,2.543,70.0,9.91,47.16
-0.149,0.331,2.31,2.543,70.0,9.91,47.4
-0.148,0.331,2.31,2.543,70.0,9.91,47.5
-0.149,0.331,2.309,2.543,70.0,9.91,47.57
-0.09,0.352,2.309,2.543,70.0,9.93,47.68
-0.158,0.331,2.309,2.543,70.0,9.93,47.73
-0.182,0.352,2.309,2.543,70.0,9.91,47.75
0.229,0.559,2.309,2.543,70.0,9.93,47.67
-0.092,0.394,2.309,2.543,70.0,9.93,47.55
-0.02,0.352,2.309,2.543,70.0,9.91,47.48
0.124,0.331,2.309,2.543,75.0,9.91,47.48
0.173,0.352,2.309,2.543,75.0,9.93,47.48
-0.119,0.352,2.309,2.542,75.0,9.91,47.44
-0.15,0.331,2.309,2.542,75.0,9.93,47.36
-0.139,0.311,2.309,2.541,75.0,9.91,47.21
-0.137,0.352,2.309,2.542,75.0,9.91,46.96
-0.111,0.352,2.309,2.542,75.0,9.91,46.75
-0.067,0.352,2.308,2.541,75.0,9.91,46.58
-0.135,0.331,2.309,2.541,75.0,9.93,46.45
0.225,0.539,2.309,2.541,75.0,9.93,46.3
-0.043,0.497,2.307,2.541,75.0,9.91,46.04
0.003,0.311,2.307,2.541,75.0,9.91,45.82
0.117,0.352,2.307,2.541,75.0,9.91,45.65
0.297,0.352,2.307,2.541,75.0,9.93,45.49
0.126,0.352,2.307,2.541,75.0,9.91,45.3
-0.05,0.352,2.307,2.541,74.0,9.93,45.06
-0.035,0.352,2.307,2.541,74.0,9.93,44.81
-0.025,0.352,2.307,2.541,74.0,9.93,44.46
-0.026,0.352,2.307,2.541,74.0,9.93,44.15
-0.021,0.331,2.307,2.541,74.0,9.93,43.94
0.04,0.352,2.307,2.541,74.0,9.93,43.79
-0.034,0.331,2.307,2.541,74.0,9.93,43.73
0.004,0.352,2.307,2.541,74.0,9.93,43.66
0.287,0.642,2.307,2.541,74.0,9.93,43.58
0.054,0.331,2.307,2.541,74.0,9.93,43.56
0.132,0.331,2.307,2.541,74.0,9.93,43.56
0.288,0.331,2.307,2.541,74.0,9.93,43.57
0.269,0.352,2.307,2.541,74.0,9.93,43.57
-0.013,0.331,2.307,2.541,74.0,9.91,43.56
-0.032,0.311,2.307,2.541,69.0,9.91,43.57
-0.022,0.331,2.307,2.541,69.0,9.91,43.65
-0.024,0.352,2.307,2.541,69.0,9.91,43.79
-0.006,0.373,2.307,2.541,69.0,9.93,44.03
0.025,0.352,2.307,2.539,69.0,9.93,44.3
-0.053,0.352,2.305,2.539,69.0,9.93,44.62
0.252,0.477,2.304,2.539,69.0,9.91,44.88
0.044,0.518,2.304,2.538,69.0,9.91,45.06
0.05,0.373,2.304,2.539,69.0,9.91,45.29
0.144,0.311,2.304,2.538,69.0,9.91,45.57
0.315,0.352,2.304,2.538,69.0,9.93,45.86
0.156,0.311,2.304,2.538,69.0,9.91,46.1
-0.046,0.331,2.304,2.538,72.0,9.93,46.3
-0.042,0.331,2.304,2.538,72.0,9.91,46.5
-0.04,0.331,2.304,2.538,72.0,9.91,46.58
-0.04,0.331,2.304,2.539,72.0,9.91,46.69
0.015,0.352,2.304,2.538,72.0,9.93,46.88
-0.069,0.352,2.304,2.538,72.0,9.93,47.09
-0.066,0.394,2.304,2.538,72.0,9.93,47.32
0.296,0.559,2.304,2.538,72.0,9.93,47.42
0.0,0.29,2.304,2.538,72.0,9.93,47.41
0.069,0.331,2.304,2.538,72.0,9.93,47.44
0.22,0.331,2.304,2.538,72.0,9.93,47.49
0.22,0.352,2.304,2.538,72.0,9.93,47.52
-0.062,0.373,2.304,2.538,75.0,9.91,47.49
-0.081,0.311,2.304,2.538,75.0,9.91,47.48
-0.083,0.352,2.304,2.538,75.0,9.91,47.35
-0.087,0.352,2.304,2.538,75.0,9.91,47.18
-0.035,0.311,2.304,2.538,75.0,9.93,47.09
-0.079,0.331,2.303,2.538,75.0,9.91,47.02
-0.12,0.331,2.302,2.538,75.0,9.93,47.02
0.303,0.622,2.302,2.538,75.0,9.91,46.97
-0.07,0.373,2.302,2.538,75.0,9.91,46.8
0.023,0.352,2.302,2.538,75.0,9.91,46.67
0.156,0.373,2.302,2.538,75.0,9.93,46.59
0.265,0.311,2.302,2.536,75.0,9.93,46.52
-0.025,0.352,2.302,2.537,75.0,9.91,46.38
-0.091,0.331,2.302,2.536,75.0,9.91,46.22
-0.072,0.352,2.302,2.537,75.0,9.91,46.0
-0.072,0.331,2.302,2.537,75.0,9.93,45.65
-0.073,0.311,2.302,2.536,75.0,9.91,45.37
-0.025,0.331,2.302,2.536,75.0,9.93,45.17
-0.051,0.331,2.3,2.536,75.0,9.93,45.01
-0.094,0.311,2.302,2.536,75.0,9.93,44.89
0.314,0.601,2.302,2.536,75.0,9.91,44.68
-0.065,0.394,2.302,2.536,75.0,9.91,44.49
0.038,0.311,2.301,2.536,75.0,9.91,44.34
0.165,0.352,2.301,2.536,75.0,9.9,44.22
0.308,0.373,2.302,2.536,75.0,9.91,44.1
0.028,0.331,2.302,2.536,75.0,9.91,43.98
-0.07,0.373,2.302,2.536,70.0,9.93,43.89
-0.062,0.331,2.302,2.536,70.0,9.93,43.75
-0.067,0.373,2.302,2.536,70.0,9.93,43.54
-0.074,0.373,2.302,2.536,70.0,9.91,43.42
-0.069,0.352,2.302,2.536,70.0,9.91,43.4
-0.02,0.331,2.302,2.536,70.0,9.91,43.4
-0.101,0.311,2.302,2.536,70.0,9.93,43.44
0.031,0.414,2.302,2.536,70.0,9.93,43.42
0.135,0.559,2.302,2.536,70.0,9.93,43.4
-0.013,0.311,2.302,2.533,70.0,9.93,43.44
0.07,0.331,2.302,2.536,70.0,9.91,43.47
0.241,0.311,2.302,2.534,70.0,9.93,43.5
0.168,0.331,2.302,2.536,70.0,9.91,43.5
-0.086,0.311,2.302,2.536,68.0,9.93,43.5
-0.096,0.394,2.302,2.534,68.0,9.93,43.5
-0.094,0.352,2.304,2.534,68.0,9.93,43.42
-0.104,0.331,2.303,2.534,68.0,9.93,43.32
-0.1,0.311,2.304,2.533,68.0,9.93,43.31
-0.061,0.311,2.304,2.533,68.0,9.93,43.33
-0.146,0.352,2.304,2.536,68.0,9.93,43.36
-0.178,0.539,2.304,2.536,68.0,9.93,43.39
-0.163,0.559,2.304,2.534,68.0,9.93,43.37
-0.072,0.311,2.304,2.534,68.0,9.93,43.42
0.004,0.331,2.304,2.533,68.0,9.93,43.57
0.167,0.331,2.304,2.533,68.0,9.93,43.75
0.076,0.352,2.303,2.536,68.0,9.93,44.17
-0.169,0.331,2.303,2.534,68.0,9.93,44.19
-0.176,0.331,2.302,2.533,68.0,9.93,44.44
-0.172,0.331,2.302,2.533,68.0,9.93,44.57
-0.178,0.352,2.302,2.533,68.0,9.93,44.72
-0.119,0.352,2.302,2.533,68.0,9.93,44.96
-0.196,0.352,2.302,2.533,68.0,9.93,45.25
-0.216,0.414,2.302,2.533,68.0,9.93,45.6
0.154,0.559,2.302,2.533,68.0,9.93,45.83
-0.138,0.352,2.302,2.533,68.0,9.93,45.97
-0.07,0.331,2.302,2.533,68.0,9.93,46.16
0.076,0.352,2.302,2.533,68.0,9.93,46.41
0.104,0.331,2.302,2.533,68.0,9.93,46.7
-0.188,0.311,2.302,2.533,68.0,9.93,46.93
-0.217,0.352,2.302,2.533,68.0,9.93,47.14
-0.213,0.352,2.302,2.533,68.0,9.93,47.25
-0.191,0.311,2.302,2.533,68.0,9.93,47.32
-0.163,0.311,2.302,2.533,68.0,9.93,47.46
-0.236,0.29,2.301,2.533,68.0,9.93,47.6
0.102,0.435,2.3,2.531,68.0,9.91,47.73
-0.138,0.477,2.3,2.532,68.0,9.91,47.75
-0.124,0.331,2.3,2.532,68.0,9.91,47.65
-0.025,0.352,2.3,2.532,80.0,9.93,47.59
0.138,0.352,2.3,2.532,80.0,9.93,47.56
-0.043,0.352,2.3,2.532,80.0,9.93,47.55
-0.208,0.331,2.3,2.531,80.0,9.91,47.47
-0.196,0.352,2.3,2.531,80.0,9.93,47.39
-0.193,0.331,2.3,2.531,80.0,9.93,47.18
-0.169,0.331,2.3,2.531,80.0,9.93,46.93
-0.132,0.331,2.3,2.531,80.0,9.93,46.75
-0.201,0.311,2.3,2.531,80.0,9.93,46.6
0.142,0.497,2.3,2.531,80.0,9.93,46.52
-0.091,0.477,2.3,2.531,80.0,9.91,46.36
-0.069,0.352,2.3,2.531,80.0,9.93,46.16
0.04,0.311,2.3,2.531,77.0,9.93,46.01
0.221,0.352,2.3,2.531,77.0,9.93,45.9
0.049,0.352,2.3,2.531,77.0,9.93,45.8
-0.12,0.331,2.298,2.531,77.0,9.93,45.63
-0.104,0.331,2.297,2.531,77.0,9.93,45.45
-0.097,0.331,2.297,2.531,77.0,9.93,45.14
-0.096,0.331,2.297,2.531,77.0,9.93,44.83
-0.059,0.331,2.297,2.531,77.0,9.93,44.63
-0.057,0.352,2.297,2.531,77.0,9.93,44.45
-0.114,0.352,2.297,2.531,77.0,9.93,44.34
0.318,0.559,2.297,2.531,77.0,9.93,44.19
-0.109,0.601,2.297,2.531,77.0,9.93,44.02
0.018,0.331,2.297,2.531,77.0,9.93,43.92
0.131,0.394,2.297,2.529,77.0,9.93,43.85
0.303,0.352,2.297,2.531,77.0,9.93,43.79
0.077,0.331,2.297,2.531,77.0,9.93,43.74
-0.067,0.352,2.297,2.528,72.0,9.91,43.7
-0.057,0.352,2.297,2.531,72.0,9.93,43.64
-0.056,0.331,2.297,2.528,72.0,9.93,43.49
-0.061,0.331,2.297,2.529,72.0,9.93,43.38
-0.045,0.352,2.297,2.531,72.0,9.91,43.37
-0.017,0.331,2.297,2.531,72.0,9.93,43.36
-0.082,0.352,2.297,2.528,72.0,9.93,43.4
0.201,0.497,2.297,2.528,72.0,9.93,43.4
0.019,0.539,2.297,2.531,72.0,9.93,43.39
0.005,0.352,2.297,2.528,72.0,9.93,43.42
0.094,0.373,2.297,2.528,72.0,9.93,43.45
0.261,0.311,2.297,2.528,72.0,9.93,43.5
0.112,0.311,2.297,2.528,72.0,9.93,43.63
-0.099,0.331,2.297,2.528,70.0,9.93,43.86
-0.1,0.331,2.297,2.528,70.0,9.93,44.11
-0.096,0.311,2.297,2.528,70.0,9.91,44.23
-0.101,0.311,2.297,2.528,70.0,9.93,44.38
-0.089,0.352,2.297,2.528,70.0,9.91,44.64
-0.05,0.352,2.296,2.528,70.0,9.93,44.9
-0.129,0.311,2.296,2.528,70.0,9.91,45.21
0.032,0.414,2.295,2.528,70.0,9.91,45.42
0.112,0.622,2.295,2.528,70.0,9.93,45.58
-0.034,0.331,2.295,2.528,70.0,9.91,45.79
0.052,0.29,2.295,2.528,70.0,9.91,46.04
0.218,0.331,2.295,2.528,70.0,9.91,46.29
0.119,0.373,2.295,2.528,70.0,9.93,46.5
-0.121,0.331,2.295,2.528,70.0,9.93,46.7
-0.124,0.373,2.295,2.528,70.0,9.93,46.89
-0.119,0.352,2.295,2.528,70.0,9.93,46.97
-0.122,0.331,2.295,2.528,70.0,9.93,47.02
-0.081,0.373,2.295,2.528,70.0,9.93,47.17
-0.11,0.331,2.295,2.528,70.0,9.93,47.34
-0.156,0.331,2.295,2.528,70.0,9.93,47.53
0.292,0.539,2.295,2.528,70.0,9.93,47.6
-0.139,0.394,2.295,2.528,70.0,9.93,47.58
-0.025,0.331,2.295,2.527,70.0,9.93,47.59
0.096,0.331,2.295,2.527,70.0,9.93,47.62
0.239,0.352,2.295,2.527,70.0,9.93,47.69
-0.031,0.331,2.295,2.526,70.0,9.93,47.68
-0.132,0.352,2.295,2.526,73.0,9.93,47.65
-0.12,0.352,2.295,2.526,73.0,9.93,47.57
-0.122,0.331,2.295,2.526,73.0,9.93,47.37
-0.121,0.311,2.295,2.526,73.0,9.93,47.22
-0.066,0.331,2.295,2.526,73.0,9.93,47.14
-0.11,0.311,2.295,2.526,73.0,9.93,47.1
-0.142,0.352,2.295,2.526,73.0,9.91,47.07
0.286,0.559,2.295,2.526,73.0,9.93,46.95
-0.076,0.331,2.295,2.526,73.0,9.93,46.81
0.016,0.352,2.295,2.526,73.0,9.93,46.74
0.157,0.311,2.295,2.526,73.0,9.93,46.69
0.268,0.331,2.295,2.526,73.0,9.93,46.64
-0.027,0.331,2.295,2.526,73.0,9.93,46.54
-0.089,0.352,2.295,2.526,72.0,9.93,46.43
-0.071,0.331,2.295,2.526,72.0,9.93,46.25
-0.069,0.331,2.295,2.526,72.0,9.93,45.99
-0.065,0.331,2.295,2.526,72.0,9.93,45.78
-0.047,0.373,2.295,2.526,72.0,9.93,45.64
0.0,0.331,2.295,2.524,72.0,9.93,45.55
-0.072,0.352,2.295,2.526,72.0,9.91,45.49
0.175,0.497,2.295,2.526,72.0,9.93,45.32
0.107,0.58,2.295,2.523,72.0,9.93,45.14
0.046,0.352,2.295,2.526,72.0,9.93,45.02
0.145,0.331,2.295,2.524,72.0,9.93,44.93
0.324,0.331,2.295,2.524,72.0,9.93,44.84
0.198,0.352,2.295,2.523,72.0,9.91,44.72
-0.023,0.352,2.295,2.523,72.0,9.91,44.57
-0.018,0.311,2.295,2.523,68.0,9.91,44.44
-0.009,0.331,2.295,2.523,68.0,9.91,44.21
-0.014,0.331,2.295,2.523,68.0,9.91,43.99
-0.018,0.331,2.295,2.523,68.0,9.93,43.86
-0.016,0.311,2.295,2.523,68.0,9.91,43.78
0.041,0.352,2.295,2.523,68.0,9.91,43.78
-0.032,0.331,2.295,2.523,68.0,9.91,43.71
-0.053,0.373,2.295,2.523,68.0,9.91,43.61
0.304,0.642,2.295,2.523,68.0,9.91,43.62
0.017,0.352,2.295,2.523,68.0,9.91,43.66
0.079,0.331,2.295,2.523,68.0,9.91,43.8
0.228,0.331,2.295,2.523,68.0,9.93,44.05
0.273,0.331,2.295,2.523,68.0,9.91,44.33
-0.043,0.352,2.295,2.523,68.0,9.91,44.65
-0.086,0.311,2.295,2.523,64.0,9.93,44.99
-0.076,0.331,2.295,2.523,64.0,9.93,45.19
-0.081,0.311,2.295,2.523,64.0,9.93,45.34
-0.077,0.331,2.295,2.523,64.0,9.91,45.59
-0.028,0.331,2.295,2.523,64.0,9.93,45.85
-0.108,0.331,2.295,2.523,64.0,9.93,46.15
-0.07,0.373,2.295,2.523,64.0,9.93,46.35
0.237,0.539,2.293,2.523,64.0,9.93,46.43
-0.029,0.331,2.293,2.523,64.0,9.93,46.56
0.049,0.352,2.293,2.523,64.0,9.93,46.78
0.215,0.373,2.295,2.523,64.0,9.93,47.03
0.191,0.29,2.295,2.523,64.0,9.93,47.25
-0.094,0.352,2.293,2.522,72.0,9.93,47.39
-0.112,0.352,2.295,2.522,72.0,9.93,47.55
-0.106,0.311,2.295,2.523,72.0,9.93,47.59
-0.11,0.352,2.293,2.523,72.0,9.93,47.53
-0.094,0.29,2.292,2.521,72.0,9.93,47.48
-0.055,0.311,2.292,2.521,72.0,9.93,47.42
-0.134,0.331,2.293,2.521,72.0,9.93,47.42
0.169,0.435,2.292,2.521,72.0,9.93,47.36
0.001,0.477,2.292,2.521,72.0,9.93,47.21
-0.023,0.331,2.292,2.521,72.0,9.93,47.11
0.077,0.311,2.292,2.521,72.0,9.93,47.06
0.249,0.352,2.292,2.521,72.0,9.93,47.05
0.097,0.352,2.292,2.521,72.0,9.93,47.01
-0.104,0.331,2.292,2.521,72.0,9.93,46.89
-0.095,0.331,2.292,2.521,72.0,9.93,46.76
-0.086,0.352,2.292,2.521,72.0,9.93,46.51
-0.087,0.331,2.292,2.521,72.0,9.93,46.26
-0.063,0.331,2.292,2.521,72.0,9.93,46.09
-0.019,0.352,2.29,2.521,72.0,9.93,45.96
-0.091,0.331,2.29,2.521,72.0,9.93,45.87
0.216,0.477,2.29,2.521,72.0,9.93,45.72
0.029,0.477,2.29,2.521,72.0,9.93,45.53
0.028,0.29,2.29,2.521,72.0,9.93,45.39
0.133,0.311,2.29,2.521,72.0,9.93,45.28
0.313,0.373,2.29,2.519,72.0,9.93,45.17
0.16,0.331,2.29,2.521,72.0,9.93,45.03
-0.04,0.331,2.29,2.521,71.0,9.93,44.89
-0.032,0.352,2.29,2.519,71.0,9.93,44.72
-0.027,0.331,2.29,2.519,71.0,9.93,44.38
-0.032,0.331,2.29,2.518,71.0,9.93,44.1
-0.036,0.331,2.29,2.519,71.0,9.93,43.95
0.01,0.414,2.29,2.518,71.0,9.93,43.85
-0.015,0.311,2.29,2.518,71.0,9.93,43.81
-0.057,0.394,2.29,2.518,71.0,9.93,43.75
0.337,0.601,2.29,2.518,71.0,9.93,43.66
-0.022,0.373,2.29,2.518,71.0,9.93,43.65
0.082,0.311,2.29,2.518,71.0,9.93,43.66
0.208,0.311,2.29,2.518,71.0,9.93,43.67
0.343,0.311,2.29,2.518,71.0,9.93,43.66
0.05,0.311,2.29,2.518,71.0,9.93,43.65
-0.058,0.394,2.29,2.518,68.0,9.93,43.65
-0.049,0.311,2.29,2.518,68.0,9.93,43.61
-0.055,0.352,2.29,2.518,68.0,9.93,43.61
-0.061,0.331,2.29,2.518,68.0,9.93,43.74
-0.054,0.331,2.29,2.518,68.0,9.93,43.95
-0.011,0.311,2.29,2.518,68.0,9.93,44.17
-0.094,0.311,2.29,2.518,68.0,9.93,44.39
0.048,0.435,2.29,2.518,68.0,9.93,44.52
0.141,0.58,2.29,2.518,68.0,9.93,44.64
-0.008,0.311,2.29,2.518,68.0,9.93,44.82
0.071,0.311,2.29,2.518,68.0,9.93,45.04
0.238,0.331,2.29,2.518,68.0,9.93,45.27
0.161,0.373,2.29,2.517,68.0,9.93,45.46
-0.097,0.331,2.29,2.517,68.0,9.93,45.61
-0.105,0.311,2.29,2.516,68.0,9.93,45.79
-0.099,0.331,2.29,2.518,68.0,9.93,45.85
-0.102,0.352,2.29,2.516,68.0,9.93,45.93
-0.074,0.311,2.29,2.516,68.0,9.93,46.11
-0.069,0.331,2.29,2.516,68.0,9.93,46.32
-0.136,0.331,2.287,2.516,68.0,9.93,46.6
0.298,0.518,2.287,2.516,68.0,9.93,46.79
-0.132,0.435,2.287,2.516,68.0,9.93,46.9
-0.02,0.352,2.29,2.516,68.0,9.93,47.06
0.091,0.331,2.287,2.516,73.0,9.93,47.24
0.255,0.352,2.287,2.516,73.0,9.93,47.4
0.023,0.331,2.287,2.516,73.0,9.93,47.51
-0.111,0.352,2.287,2.516,73.0,9.93,47.56
-0.109,0.352,2.288,2.516,73.0,9.93,47.56
-0.11,0.311,2.288,2.516,73.0,9.93,47.44
-0.11,0.331,2.287,2.516,73.0,9.93,47.34
-0.051,0.331,2.287,2.516,73.0,9.93,47.31
-0.117,0.311,2.287,2.516,73.0,9.93,47.32
-0.142,0.311,2.287,2.516,73.0,9.93,47.32
0.267,0.601,2.287,2.516,73.0,9.93,47.24
-0.052,0.394,2.287,2.516,73.0,9.93,47.14
0.017,0.352,2.287,2.516,73.0,9.93,47.1
0.163,0.331,2.287,2.516,73.0,9.93,47.09
0.22,0.331,2.287,2.516,73.0,9.93,47.07
-0.073,0.373,2.287,2.516,73.0,9.93,47.0
-0.106,0.331,2.287,2.516,73.0,9.93,46.89
-0.092,0.331,2.287,2.516,73.0,9.93,46.68
-0.087,0.331,2.287,2.514,73.0,9.93,46.43
-0.085,0.352,2.287,2.514,73.0,9.93,46.23
-0.024,0.352,2.285,2.514,73.0,9.93,46.07
-0.068,0.331,2.285,2.513,73.0,9.93,45.98
-0.101,0.311,2.285,2.513,73.0,9.93,45.87
0.297,0.601,2.285,2.513,73.0,9.93,45.67
-0.027,0.352,2.285,2.513,73.0,9.93,45.5
0.051,0.311,2.285,2.513,73.0,9.93,45.37
0.194,0.331,2.285,2.513,73.0,9.93,45.25
0.3,0.311,2.285,2.513,73.0,9.93,45.14
-0.021,0.352,2.285,2.513,73.0,9.93,44.99
-0.057,0.352,2.285,2.513,70.0,9.93,44.8
-0.047,0.331,2.285,2.513,70.0,9.93,44.57
-0.051,0.352,2.285,2.513,70.0,9.93,44.26
-0.057,0.331,2.285,2.513,70.0,9.93,44.05
-0.053,0.373,2.285,2.513,70.0,9.93,43.82
0.008,0.311,2.285,2.513,70.0,9.93,43.81
-0.067,0.352,2.285,2.513,70.0,9.93,43.77
-0.026,0.394,2.285,2.513,70.0,9.93,43.7
0.248,0.642,2.285,2.513,70.0,9.93,43.65
0.018,0.352,2.285,2.513,70.0,9.93,43.66
0.092,0.311,2.285,2.513,70.0,9.93,43.68
0.247,0.311,2.285,2.513,70.0,9.93,43.7
0.231,0.352,2.285,2.513,70.0,9.93,43.68
-0.059,0.331,2.285,2.513,70.0,9.93,43.68
-0.082,0.331,2.285,2.513,67.0,9.93,43.71
-0.076,0.331,2.282,2.513,67.0,9.93,43.81
-0.082,0.331,2.282,2.513,67.0,9.93,43.96
-0.084,0.352,2.282,2.513,67.0,9.93,44.22
-0.03,0.352,2.282,2.513,67.0,9.93,44.52
-0.099,0.331,2.282,2.511,67.0,9.93,44.85
-0.127,0.352,2.282,2.512,67.0,9.93,45.11
0.259,0.518,2.282,2.512,67.0,9.93,45.28
-0.049,0.394,2.282,2.511,67.0,9.93,45.5
0.016,0.352,2.282,2.512,67.0,9.93,45.76
0.159,0.331,2.282,2.512,70.0,9.93,46.04
0.226,0.373,2.282,2.511,70.0,9.93,46.3
-0.082,0.373,2.282,2.511,70.0,9.93,46.49
-0.134,0.311,2.282,2.511,70.0,9.93,46.7
-0.13,0.311,2.282,2.512,70.0,9.93,46.84
-0.134,0.352,2.282,2.512,70.0,9.93,46.91
-0.106,0.331,2.282,2.512,70.0,9.93,47.05
-0.116,0.373,2.282,2.511,70.0,9.93,47.24
-0.181,0.352,2.28,2.511,70.0,9.93,47.45
0.258,0.497,2.281,2.511,70.0,9.93,47.58
-0.181,0.456,2.28,2.511,70.0,9.93,47.51
-0.066,0.352,2.281,2.511,70.0,9.93,47.44
0.04,0.311,2.28,2.511,75.0,9.93,47.42
0.192,0.352,2.28,2.511,75.0,9.93,47.42
-0.049,0.311,2.28,2.511,75.0,9.93,47.37
-0.176,0.331,2.28,2.511,75.0,9.93,47.29
-0.168,0.331,2.28,2.511,75.0,9.93,47.16
-0.169,0.352,2.28,2.511,75.0,9.93,46.91
-0.165,0.331,2.28,2.511,75.0,9.93,46.68
-0.1,0.331,2.28,2.511,75.0,9.93,46.52
-0.174,0.331,2.28,2.511,75.0,9.93,46.43
-0.159,0.414,2.28,2.511,75.0,9.93,46.36
0.194,0.642,2.28,2.511,75.0,9.93,46.18
-0.084,0.352,2.28,2.511,75.0,9.93,45.96
-0.002,0.352,2.278,2.511,75.0,9.93,45.81
0.162,0.352,2.277,2.511,74.0,9.93,45.67
0.17,0.331,2.277,2.509,74.0,9.93,45.55
-0.109,0.331,2.277,2.511,74.0,9.93,45.38
-0.127,0.331,2.277,2.509,74.0,9.93,45.21
-0.115,0.352,2.277,2.509,74.0,9.93,44.94
-0.116,0.352,2.277,2.511,74.0,9.93,44.65
-0.113,0.331,2.277,2.509,74.0,9.93,44.47
-0.051,0.352,2.277,2.509,74.0,9.93,44.35
-0.126,0.331,2.277,2.508,74.0,9.93,44.28
-0.076,0.373,2.277,2.508,74.0,9.93,44.21
0.204,0.601,2.277,2.508,74.0,9.93,44.08
-0.027,0.331,2.277,2.508,74.0,9.93,43.99
0.057,0.311,2.277,2.509,74.0,9.93,43.95
0.221,0.331,2.277,2.508,74.0,9.93,43.9
0.199,0.352,2.277,2.508,74.0,9.93,43.85
-0.087,0.373,2.277,2.508,71.0,9.93,43.8
-0.112,0.373,2.277,2.508,71.0,9.93,43.77
-0.109,0.352,2.277,2.508,71.0,9.93,43.67
-0.117,0.331,2.277,2.508,71.0,9.93,43.73
-0.072,0.352,2.277,2.508,71.0,9.93,43.97
-0.11,0.311,2.277,2.508,71.0,9.93,44.27
-0.161,0.352,2.277,2.508,71.0,9.93,44.63
0.247,0.559,2.277,2.508,71.0,9.93,44.92
-0.141,0.373,2.277,2.508,71.0,9.93,45.11
-0.036,0.331,2.277,2.508,71.0,9.93,45.34
0.085,0.311,2.277,2.508,75.0,9.93,45.62
0.216,0.352,2.277,2.507,75.0,9.93,45.9
-0.063,0.311,2.277,2.508,75.0,9.93,46.08
-0.157,0.311,2.277,2.508,75.0,9.93,46.25
-0.147,0.331,2.277,2.507,75.0,9.93,46.36
-0.14,0.414,2.277,2.508,75.0,9.93,46.37
-0.087,0.373,2.277,2.508,75.0,9.93,46.45
-0.171,0.331,2.275,2.508,75.0,9.93,46.57
-0.082,0.373,2.275,2.507,75.0,9.93,46.68
0.122,0.559,2.275,2.507,75.0,9.93,46.78
-0.086,0.352,2.275,2.506,75.0,9.93,46.78
0.006,0.331,2.275,2.506,75.0,9.93,46.72
0.173,0.352,2.275,2.506,80.0,9.93,46.72
0.1,0.331,2.275,2.506,80.0,9.93,46.73
-0.138,0.331,2.275,2.506,80.0,9.93,46.72
-0.14,0.331,2.275,2.506,80.0,9.93,46.71
-0.134,0.331,2.275,2.506,80.0,9.93,46.61
-0.074,0.331,2.275,2.506,80.0,9.93,46.52
-0.154,0.311,2.275,2.506,80.0,9.93,46.52
-0.133,0.352,2.275,2.506,80.0,9.93,46.54
0.196,0.642,2.275,2.506,80.0,9.93,46.63
-0.081,0.311,2.275,2.506,80.0,9.93,46.68
0.001,0.311,2.275,2.506,80.0,9.93,46.69
0.167,0.311,2.275,2.506,83.0,9.93,46.72
0.137,0.311,2.275,2.506,83.0,9.93,46.76
-0.13,0.331,2.275,2.506,83.0,9.93,46.73
-0.115,0.352,2.275,2.506,83.0,9.93,46.63
-0.094,0.352,2.275,2.506,83.0,9.93,46.43
-0.06,0.311,2.275,2.506,83.0,9.93,46.19
-0.143,0.373,2.275,2.506,83.0,9.93,46.02
0.102,0.497,2.275,2.504,83.0,9.93,45.9
0.017,0.539,2.275,2.506,83.0,9.93,45.68
-0.037,0.352,2.275,2.506,83.0,9.93,45.66
0.065,0.352,2.275,2.506,83.0,9.93,45.45
0.236,0.311,2.275,2.504,83.0,9.93,45.26
0.094,0.331,2.275,2.506,83.0,9.93,45.1
-0.084,0.311,2.275,2.506,86.0,9.93,44.91
-0.078,0.352,2.275,2.504,86.0,9.93,44.72
-0.076,0.373,2.275,2.506,86.0,9.93,44.4
-0.09,0.311,2.275,2.503,86.0,9.93,44.1
-0.104,0.311,2.275,2.503,86.0,9.93,43.94
-0.115,0.352,2.275,2.504,86.0,9.93,43.81
0.256,0.622,2.275,2.503,86.0,9.93,43.78
-0.05,0.373,2.275,2.503,86.0,9.93,43.73
0.012,0.352,2.275,2.503,86.0,9.93,43.65
0.141,0.331,2.275,2.504,86.0,9.93,43.65
0.222,0.311,2.275,2.503,86.0,9.93,43.66
-0.076,0.331,2.275,2.503,86.0,9.93,43.77
-0.133,0.331,2.275,2.503,80.0,9.93,44.03
-0.127,0.311,2.275,2.503,80.0,9.93,44.24
-0.134,0.331,2.275,2.504,80.0,9.93,44.39
-0.107,0.331,2.275,2.503,80.0,9.93,44.64
-0.117,0.331,2.275,2.503,80.0,9.93,44.95
-0.183,0.331,2.276,2.503,80.0,9.93,45.3
0.235,0.497,2.275,2.503,80.0,9.93,45.59
-0.171,0.497,2.277,2.503,80.0,9.93,45.79
-0.073,0.352,2.277,2.503,80.0,9.93,46.0
0.031,0.331,2.277,2.503,75.0,9.93,46.31
0.185,0.352,2.277,2.503,75.0,9.93,46.65
-0.024,0.331,2.277,2.503,75.0,9.93,46.95
-0.171,0.331,2.277,2.503,75.0,9.93,47.21
-0.167,0.311,2.277,2.503,75.0,9.93,47.46
-0.17,0.331,2.277,2.506,75.0,9.93,47.58
-0.123,0.352,2.277,2.503,75.0,9.93,47.71
-0.157,0.311,2.277,2.503,75.0,9.93,47.83
-0.199,0.331,2.28,2.503,75.0,9.93,47.88
0.253,0.477,2.28,2.503,75.0,9.93,47.87
-0.18,0.435,2.28,2.503,75.0,9.93,47.71
-0.056,0.352,2.28,2.503,75.0,9.93,47.56
0.059,0.352,2.28,2.503,78.0,9.93,47.47
0.187,0.331,2.28,2.503,78.0,9.93,47.4
-0.057,0.331,2.28,2.503,78.0,9.93,47.29
-0.142,0.311,2.28,2.503,78.0,9.93,47.14
-0.123,0.352,2.28,2.503,78.0,9.93,46.94
-0.116,0.373,2.28,2.503,78.0,9.93,46.63
-0.111,0.373,2.28,2.503,78.0,9.93,46.36
-0.074,0.331,2.28,2.503,78.0,9.93,46.14
-0.048,0.331,2.28,2.503,78.0,9.93,45.97
-0.105,0.352,2.28,2.503,78.0,9.93,45.83
0.303,0.477,2.28,2.503,78.0,9.93,45.62
-0.064,0.58,2.28,2.503,78.0,9.93,45.38
0.035,0.331,2.28,2.503,78.0,9.93,45.21
0.145,0.352,2.277,2.503,78.0,9.93,45.04
0.312,0.331,2.277,2.503,78.0,9.93,44.89
0.126,0.331,2.278,2.503,78.0,9.93,44.72
-0.034,0.311,2.277,2.503,78.0,9.93,44.53
-0.025,0.311,2.277,2.503,70.0,9.93,44.35
-0.032,0.352,2.277,2.503,70.0,9.93,44.05
-0.041,0.352,2.277,2.503,70.0,9.93,43.84
-0.046,0.331,2.277,2.503,70.0,9.93,43.75
-0.015,0.331,2.277,2.503,70.0,9.93,43.71
-0.006,0.311,2.277,2.503,70.0,9.93,43.71
-0.066,0.352,2.277,2.503,70.0,9.93,43.67
0.34,0.539,2.277,2.503,70.0,9.93,43.63
-0.067,0.539,2.277,2.503,70.0,9.93,43.65
0.054,0.331,2.277,2.503,70.0,9.93,43.66
0.155,0.331,2.277,2.503,70.0,9.93,43.69
0.305,0.311,2.277,2.503,70.0,9.93,43.69
0.094,0.331,2.277,2.503,70.0,9.93,43.68
-0.079,0.352,2.277,2.503,66.0,9.93,43.69
-0.081,0.352,2.277,2.503,66.0,9.93,43.69
-0.088,0.352,2.277,2.503,66.0,9.93,43.73
-0.097,0.311,2.277,2.503,66.0,9.93,43.9
-0.096,0.331,2.277,2.503,66.0,9.93,44.17
-0.049,0.352,2.277,2.502,66.0,9.93,44.48
-0.126,0.331,2.275,2.503,66.0,9.93,44.84
-0.04,0.394,2.277,2.503,66.0,9.93,45.11
0.175,0.559,2.276,2.503,66.0,9.93,45.4
-0.041,0.352,2.277,2.503,66.0,9.93,45.73
0.042,0.352,2.277,2.503,66.0,9.93,46.1
0.208,0.414,2.277,2.503,66.0,9.93,46.48
0.152,0.352,2.277,2.503,66.0,9.93,46.86
-0.107,0.311,2.277,2.503,70.0,9.93,47.19
-0.116,0.331,2.277,2.503,70.0,9.93,47.53
-0.112,0.331,2.277,2.503,70.0,9.93,47.71
-0.106,0.311,2.277,2.503,70.0,9.93,47.78
-0.05,0.311,2.277,2.503,70.0,9.93,47.9
-0.131,0.352,2.277,2.503,70.0,9.93,47.99
-0.087,0.373,2.277,2.502,70.0,9.93,48.04
0.226,0.622,2.277,2.503,70.0,9.93,47.98
-0.041,0.373,2.277,2.502,70.0,9.93,47.87
0.041,0.373,2.277,2.501,70.0,9.93,47.86
0.2,0.373,2.277,2.503,70.0,9.93,47.91
0.158,0.373,2.277,2.501,70.0,9.93,47.95
-0.103,0.331,2.277,2.501,76.0,9.93,47.95
-0.113,0.352,2.277,2.503,76.0,9.93,47.93
-0.109,0.331,2.277,2.501,76.0,9.93,47.84
-0.112,0.331,2.277,2.501,76.0,9.93,47.71
-0.065,0.352,2.277,2.501,76.0,9.93,47.66
-0.089,0.311,2.277,2.501,76.0,9.93,47.67
-0.133,0.373,2.276,2.501,76.0,9.93,47.74
0.312,0.58,2.275,2.501,76.0,9.93,47.78
-0.091,0.394,2.275,2.501,76.0,9.93,47.75
0.016,0.331,2.276,2.501,76.0,9.93,47.75
0.15,0.29,2.275,2.501,76.0,9.93,47.77
0.278,0.311,2.275,2.501,76.0,9.93,47.82
-0.019,0.311,2.275,2.501,76.0,9.93,47.82
-0.1,0.352,2.275,2.501,75.0,9.93,47.81
-0.088,0.352,2.275,2.501,75.0,9.93,47.78
-0.089,0.311,2.275,2.501,75.0,9.93,47.68
-0.028,0.373,2.275,2.501,75.0,9.93,47.64
-0.088,0.352,2.275,2.501,75.0,9.93,47.55
-0.113,0.352,2.275,2.501,75.0,9.93,47.46
0.306,0.559,2.275,2.499,75.0,9.93,47.35
-0.015,0.394,2.273,2.501,75.0,9.93,47.14
0.066,0.331,2.272,2.499,75.0,9.93,46.89
0.216,0.331,2.272,2.499,75.0,9.93,46.73
0.283,0.331,2.272,2.498,75.0,9.93,46.54
-0.003,0.331,2.272,2.501,75.0,9.93,46.25
-0.038,0.29,2.272,2.499,78.0,9.93,45.93
-0.023,0.352,2.272,2.499,78.0,9.93,45.57
-0.024,0.352,2.272,2.501,78.0,9.93,45.15
-0.022,0.352,2.272,2.499,78.0,9.93,44.8
0.041,0.331,2.272,2.501,78.0,9.93,44.54
-0.038,0.311,2.272,2.498,78.0,9.93,44.36
-0.019,0.394,2.272,2.499,78.0,9.93,44.24
0.304,0.642,2.27,2.499,78.0,9.93,44.08
0.041,0.352,2.272,2.499,78.0,9.93,43.97
0.121,0.352,2.272,2.501,78.0,9.93,43.9
0.285,0.311,2.272,2.501,78.0,9.93,43.87
0.279,0.311,2.272,2.499,78.0,9.93,43.85
-0.002,0.311,2.272,2.501,78.0,9.93,43.81
-0.022,0.331,2.272,2.501,72.0,9.93,43.79
-0.014,0.311,2.271,2.498,72.0,9.93,43.66
-0.021,0.352,2.271,2.501,72.0,9.93,43.51
-0.029,0.331,2.272,2.501,72.0,9.93,43.46
0.026,0.352,2.272,2.499,72.0,9.93,43.47
-0.039,0.311,2.272,2.499,72.0,9.93,43.5
-0.068,0.352,2.272,2.501,72.0,9.93,43.54
0.303,0.725,2.272,2.501,72.0,9.93,43.5
0.006,0.352,2.272,2.501,72.0,9.93,43.64
0.072,0.331,2.272,2.501,72.0,9.93,43.97
0.21,0.29,2.272,2.501,72.0,9.93,44.34
0.279,0.352,2.272,2.501,72.0,9.93,44.69
-0.023,0.352,2.272,2.499,72.0,9.93,45.0
-0.073,0.352,2.272,2.501,70.0,9.93,45.32
-0.066,0.352,2.272,2.501,70.0,9.93,45.53
-0.07,0.331,2.271,2.501,70.0,9.93,45.69
-0.033,0.331,2.272,2.501,70.0,9.93,45.91
-0.063,0.331,2.271,2.501,70.0,9.93,46.18
-0.113,0.331,2.272,2.501,70.0,9.93,46.5
0.316,0.477,2.272,2.499,70.0,9.93,46.74
-0.097,0.456,2.272,2.501,70.0,9.93,46.86
0.009,0.331,2.272,2.501,70.0,9.93,47.04
0.127,0.331,2.272,2.499,70.0,9.93,47.27
0.253,0.311,2.272,2.499,70.0,9.93,47.51
-0.016,0.331,2.272,2.498,70.0,9.93,47.65
-0.105,0.352,2.272,2.498,75.0,9.93,47.71
-0.102,0.311,2.272,2.498,75.0,9.93,47.65
